,distance,time (s)
0,11.430657957357555,37.015444
1,11.430657957357555,37.027552
2,11.430657957357555,37.052466
3,11.819666764931867,37.078097
4,12.208675572506177,37.109596
5,12.597684380080489,37.136757
6,12.9866931876548,37.148866
7,13.375701995229111,37.163277
8,13.764710802803423,37.176214
9,14.153719610377735,37.214335
10,14.542728417952045,37.226857
11,14.931737225526357,37.282536
12,15.320746033100669,37.303062
13,14.327973417164255,37.315551
14,14.079780263180153,37.327868
15,13.83158710919605,37.342618
16,13.583393955211946,37.380315
17,13.335200801227844,37.392969
18,13.355629767683906,37.417868
19,13.376058734139969,37.430128
20,13.396487700596031,37.469502
21,13.64077427170414,37.5321
22,13.88506084281225,37.544426
23,14.129347413920359,37.584502
24,14.37363398502847,37.614247
25,14.617920556136578,37.627095
26,14.862207127244687,37.643742
27,15.106493698352796,37.656664
28,15.350780269460905,37.669244
29,15.595066840569014,37.7158
30,15.839353411677124,37.728316
31,16.083639982785233,37.742066
32,16.32792655389334,37.770664
33,16.57221312500145,37.782592
34,16.81649969610956,37.810445
35,17.060786267217672,37.835174
36,17.305072838325778,37.863899
37,17.54935940943389,37.876183
38,17.793645980541996,37.890928
39,18.03793255165011,37.92321
40,18.282219122758217,37.948166
41,18.526505693866326,37.961594
42,18.770792264974435,37.973187
43,19.015078836082544,37.986042
44,19.259365407190653,38.025845
45,19.503651978298763,38.038683
46,19.74793854940687,38.050787
47,19.99222512051498,38.077411
48,20.23651169162309,38.089484
49,20.4807982627312,38.102248
50,20.72508483383931,38.133827
51,20.969371404947417,38.178531
52,21.21365797605553,38.191402
53,21.457944547163635,38.228543
54,21.702231118271747,38.241551
55,21.946517689379853,38.295118
56,22.190804260487965,38.328777
57,22.435090831596074,38.341679
58,22.679377402704183,38.353515
59,22.923663973812292,38.379354
60,23.1679505449204,38.391593
61,23.296609405373598,38.418017
62,23.42526826582679,38.443685
63,23.553927126279987,38.455022
64,23.685588374589926,38.467763
65,23.817249622899865,38.491377
66,23.789441637154233,38.516523
67,23.761633651408605,38.54703
68,23.706017679917345,38.591287
69,23.64168126716531,38.603437
70,23.57734485441328,38.630131
71,23.30967993600315,38.642148
72,23.04201501759302,38.667001
73,22.77435009918289,38.680096
74,22.50668518077276,38.694634
75,22.23902026236263,38.707725
76,22.235953119947343,38.733869
77,22.232885977532057,38.758478
78,22.22981883511677,38.771081
79,22.226751692701484,38.795338
80,22.223684550286197,38.810022
81,22.22061740787091,38.849527
82,22.217550265455625,38.862879
83,22.21448312304034,38.878091
84,22.211415980625052,38.890544
85,22.208348838209766,38.903349
86,22.205281695794476,38.915842
87,22.20221455337919,38.960027
88,22.199147410963903,38.986432
89,22.196080268548616,38.998779
90,22.19301312613333,39.011279
91,22.189945983718044,39.053243
92,22.186878841302757,39.091043
93,22.18381169888747,39.104475
94,22.180744556472185,39.11669
95,22.177677414056898,39.12942
96,22.174610271641612,39.14939
97,22.959937394447135,39.173748
98,22.84012901775742,39.187078
99,22.720320641067705,39.199815
100,22.66041645272285,39.211677
101,22.60051226437799,39.240105
102,22.793626055882427,39.266162
103,22.98673984738686,39.278348
104,23.1798536388913,39.328613
105,23.055949435511177,39.347002
106,22.932045232131056,39.377829
107,22.929105654398413,39.403147
108,22.92837075996525,39.430384
109,22.92763586553209,39.445462
110,22.92690097109893,39.461668
111,22.92616607666577,39.491924
112,22.914273353682056,39.51743
113,22.90238063069834,39.530976
114,22.92742355591668,39.549198
115,22.95246648113502,39.562073
116,22.97750940635336,39.573977
117,23.0025523315717,39.590992
118,23.02759525679004,39.60778
119,23.041754253574442,39.62087
120,23.05591325035884,39.633086
121,23.070072247143244,39.645777
122,23.084231243927647,39.683241
123,22.785585951083256,39.738571
124,22.48694065823886,39.773947
125,22.206220649293805,39.789547
126,21.925500640348744,39.815939
127,21.644780631403687,39.840186
128,21.218527911543788,39.854036
129,20.792275191683892,39.880478
130,20.366022471823996,39.893251
131,19.939769751964096,39.94263
132,20.138885024305626,39.999819
133,20.338000296647152,40.014314
134,20.537115568988682,40.027007
135,20.634172726861753,40.082476
136,20.731229884734823,40.093983
137,20.828287042607894,40.110573
138,20.925344200480964,40.142123
139,21.02240135835403,40.241845
140,21.119458516227102,40.254182
141,21.216515674100172,40.283174
142,21.313572831973243,40.309224
143,21.410629989846313,40.325381
144,21.507687147719384,40.337647
145,21.604744305592455,40.39491
146,21.701801463465525,40.40706
147,21.798858621338596,40.433561
148,21.895915779211663,40.458172
149,21.992972937084733,40.484101
150,22.090030094957804,40.498546
151,22.187087252830874,40.522839
152,22.284144410703945,40.54988
153,22.381201568577016,40.561975
154,22.005152439069647,40.574621
155,21.817127874315965,40.588329
156,21.62910330956228,40.615045
157,21.218763297766476,40.626993
158,20.808423285970672,40.639788
159,20.39808327417487,40.664939
160,19.992145888449407,40.678422
161,19.586208502723945,40.693137
162,19.18027111699848,40.705897
163,18.774333731273018,40.718262
164,18.368396345547556,40.746301
165,18.826189042230425,40.789833
166,19.283981738913294,40.803425
167,19.404442580218205,40.833544
168,19.52490342152312,40.848253
169,19.645364262828032,40.861602
170,19.765825104132947,40.874467
171,19.88628594543786,40.886971
172,19.73234458246055,40.899694
173,19.578403219483242,40.962339
174,19.142064380271687,40.98133
175,18.705725541060133,41.009882
176,18.26938670184858,41.022927
177,17.833047862637024,41.035551
178,17.369284144447246,41.085289
179,16.90552042625747,41.100086
180,16.441756708067693,41.112594
181,16.04893525069251,41.16355
182,16.005288422095266,41.207906
183,15.961641593498024,41.232994
184,15.917994764900781,41.245488
185,15.874347936303538,41.259677
186,15.830701107706297,41.297548
187,15.787054279109054,41.309324
188,15.74340745051181,41.346458
189,15.69976062191457,41.358408
190,15.656113793317326,41.38891
191,15.153692738452925,41.400906
192,14.651271683588524,41.413163
193,14.66227100543253,41.489884
194,14.673270327276535,41.50317
195,14.684269649120541,41.515884
196,14.695268970964548,41.540575
197,14.706268292808554,41.553289
198,14.71726761465256,41.578046
199,14.87954514033683,41.608362
200,15.041822666021103,41.621409
201,15.204100191705376,41.634699
202,15.366377717389646,41.646503
203,16.354931604258038,41.66082
204,16.684449566547503,41.687184
205,17.013967528836965,41.701143
206,17.34348549112643,41.726211
207,18.91239526720385,41.739206
208,19.004684077561343,41.751457
209,19.096972887918838,41.790166
210,19.189261698276333,41.80771
211,19.281550508633828,41.846835
212,19.373839318991323,41.871768
213,19.466128129348817,41.883992
214,19.558416939706312,41.920129
215,19.650705750063807,41.932529
216,19.742994560421305,41.997339
217,19.8352833707788,42.009433
218,19.927572181136295,42.021413
219,20.01986099149379,42.033954
220,20.112149801851285,42.102508
221,20.20443861220878,42.138979
222,20.296727422566274,42.179317
223,20.38901623292377,42.19213
224,20.481305043281264,42.209861
225,20.397970670111437,42.244066
226,20.10082979463258,42.261396
227,19.80368891915373,42.274763
228,19.506548043674872,42.287032
229,19.209407168196016,42.314947
230,19.07316957231921,42.327779
231,18.9369319764424,42.340087
232,18.80069438056559,42.381138
233,19.03585472866667,42.414997
234,19.271015076767753,42.439615
235,19.506175424868832,42.479142
236,19.741335772969915,42.506064
237,19.976496121070994,42.547117
238,20.211656469172073,42.560507
239,20.446816817273156,42.65683
240,20.681977165374235,42.670785
241,20.917137513475318,42.683092
242,21.152297861576397,42.696538
243,21.387458209677476,42.737998
244,21.62261855777856,42.749842
245,21.857778905879638,42.78868
246,22.092939253980717,42.808555
247,22.3280996020818,42.845377
248,22.56325995018288,42.870919
249,22.798420298283958,42.883577
250,23.03358064638504,42.895989
251,23.26874099448612,42.921324
252,23.503901342587202,42.995706
253,23.73906169068828,43.013913
254,23.813474628564666,43.053371
255,23.212673701270027,43.066534
256,22.611872773975392,43.079614
257,22.011071846680757,43.094933
258,21.810804870915877,43.108649
259,21.610537895150998,43.120659
260,21.410270919386118,43.136181
261,21.594742929350538,43.162929
262,21.77921493931496,43.177474
263,21.96368694927938,43.190241
264,22.1481589592438,43.240995
265,22.349942984944573,43.304973
266,22.64168814898565,43.346013
267,22.93343331302673,43.359781
268,22.694804637667858,43.39835
269,22.45617596230899,43.418116
270,22.21754728695012,43.444581
271,22.55880716033264,43.505576
272,22.106910754341328,43.517652
273,21.65501434835002,43.534194
274,21.20311794235871,43.546122
275,20.751221536367396,43.578824
276,20.618425045546807,43.635865
277,20.485628554726215,43.660864
278,20.623494056356503,43.672583
279,20.761359557986793,43.716336
280,20.89922505961708,43.72956
281,21.037090561247368,43.743388
282,21.17495606287766,43.756276
283,21.312821564507946,43.771521
284,21.450687066138237,43.827005
285,21.588552567768524,43.840374
286,21.386281024415553,43.855873
287,21.184009481062578,43.883397
288,21.205082563237532,43.897255
289,21.226155645412486,43.90934
290,21.24722872758744,43.977735
291,20.97032437378777,44.00285
292,20.693420019988096,44.015248
293,20.66265286956591,44.028535
294,20.631885719143725,44.0544
295,20.60111856872154,44.068637
296,20.570351418299353,44.113755
297,20.539584267877167,44.127103
298,20.50881711745498,44.162834
299,20.478049967032796,44.188173
300,20.44728281661061,44.212492
301,20.416515666188424,44.227417
302,19.60538286570398,44.280563
303,19.12658809188397,44.296632
304,18.64779331806396,44.335523
305,19.113947291850934,44.348544
306,19.580101265637904,44.404114
307,19.276255903689894,44.438287
308,18.972410541741887,44.451336
309,18.668565179793877,44.503773
310,19.30316711893452,44.534183
311,19.937769058075165,44.546873
312,20.57237099721581,44.628983
313,19.96414067682057,44.641679
314,19.355910356425326,44.654488
315,18.747680036030086,44.666535
316,18.139449715634843,44.69115
317,17.531219395239603,44.748368
318,17.219222316852107,44.760194
319,16.90722523846461,44.772202
320,16.595228160077113,44.784518
321,16.026350567138955,44.810556
322,15.457472974200797,44.823215
323,14.888595381262641,44.842368
324,14.319717788324484,44.856788
325,14.273040583587576,44.868634
326,14.249701981219124,44.894458
327,14.226363378850671,44.918408
328,14.222119996601862,44.931219
329,14.21787661435305,44.955723
330,14.213633232104241,44.968833
331,14.209389849855432,44.981557
332,14.205146467606623,45.006593
333,14.200903085357812,45.018376
334,14.196659703109002,45.030939
335,14.192416320860193,45.043817
336,14.188172938611384,45.057068
337,14.183929556362573,45.096884
338,14.179686174113764,45.1216
339,13.645215024946388,45.146613
340,13.110743875779015,45.159022
341,12.817540898653323,45.210611
342,12.52433792152763,45.22293
343,12.497683105425295,45.235667
344,12.471028289322959,45.275908
345,12.444373473220624,45.289324
346,12.417718657118288,45.315921
347,12.391063841015953,45.328124
348,12.364409024913616,45.353267
349,12.337754208811281,45.365833
350,12.311099392708945,45.378372
351,12.28444457660661,45.404221
352,12.257789760504274,45.416045
353,12.231134944401939,45.434602
354,12.234736585168935,45.447374
355,12.238338225935934,45.462113
356,12.24193986670293,45.474397
357,12.191797980915771,45.486729
358,12.141656095128612,45.51162
359,12.091514209341454,45.537402
360,12.041372323554295,45.552291
361,11.991230437767136,45.564993
362,11.941088551979977,45.59046
363,11.890946666192818,45.616475
364,11.840804780405659,45.629135
365,11.790662894618501,45.648078
366,11.740521008831342,45.698335
367,11.690379123044183,45.711356
368,11.640237237257024,45.750606
369,11.590095351469865,45.762838
370,11.539953465682705,45.787477
371,11.489811579895548,45.813718
372,11.439669694108389,45.825574
373,11.38952780832123,45.867644
374,11.607516368453918,45.880244
375,11.825504928586607,45.892799
376,12.043493488719296,45.917706
377,11.957984898045492,45.942618
378,11.91523060270859,45.954951
379,11.872476307371686,45.979668
380,13.25947155856663,45.992198
381,14.646466809761577,46.018005
382,16.033462060956523,46.030008
383,16.05619968802529,46.049551
384,16.078937315094063,46.061238
385,16.10167494216283,46.08641
386,16.124412569231602,46.098779
387,16.14715019630037,46.111489
388,16.16988782336914,46.124628
389,16.19262545043791,46.137277
390,16.21536307750668,46.149758
391,16.238100704575448,46.162973
392,16.26083833164422,46.176072
393,16.283575958712987,46.213314
394,16.30631358578176,46.226696
395,16.329051212850526,46.241628
396,16.351788839919298,46.268622
397,16.374526466988065,46.280716
398,16.397264094056837,46.294724
399,16.420001721125605,46.332266
400,16.442739348194376,46.34433
401,16.465476975263144,46.393833
402,16.488214602331915,46.419368
403,16.510952229400683,46.432997
404,16.533689856469454,46.445768
405,16.556427483538222,46.46645
406,16.579165110606993,46.47882
407,16.60190273767576,46.491447
408,16.624640364744533,46.503668
409,16.6473779918133,46.516065
410,16.670115618882072,46.540295
411,16.69285324595084,46.567055
412,16.71559087301961,46.607775
413,16.73832850008838,46.620966
414,16.76106612715715,46.65997
415,16.783803754225918,46.698934
416,16.80654138129469,46.728826
417,16.829279008363457,46.741117
418,16.85201663543223,46.753551
419,16.874754262500996,46.791159
420,16.897491889569768,46.803382
421,16.920229516638535,46.815601
422,16.942967143707307,46.827995
423,16.965704770776075,46.840506
424,16.988442397844846,46.852465
425,17.011180024913614,46.877089
426,17.033917651982385,46.889774
427,17.056655279051153,46.902611
428,17.079392906119924,46.927818
429,17.102130533188692,46.979116
430,17.124868160257464,47.017559
431,17.14760578732623,47.029761
432,17.170343414395003,47.054271
433,17.19308104146377,47.085724
434,17.215818668532542,47.098102
435,17.23855629560131,47.111142
436,17.26129392267008,47.163885
437,17.28403154973885,47.177425
438,17.30676917680762,47.191975
439,17.329506803876388,47.205054
440,17.35224443094516,47.243517
441,17.374982058013927,47.274232
442,17.3977196850827,47.301116
443,17.420457312151466,47.328206
444,17.76843662494408,47.36798
445,18.11641593773669,47.433593
446,17.94619087936934,47.445907
447,17.77596582100199,47.47628
448,17.60574076263464,47.488648
449,17.836562630907917,47.514288
450,18.067384499181195,47.528195
451,18.298206367454473,47.540358
452,18.52902823572775,47.578679
453,18.246116463949022,47.590871
454,17.963204692170294,47.641521
455,17.79122828997315,47.684653
456,17.61925188777601,47.697892
457,17.447275485578867,47.723529
458,18.574453469500348,47.749156
459,19.701631453421825,47.764447
460,19.73209572325754,47.778391
461,19.762559993093255,47.791215
462,19.793024262928974,47.828457
463,19.82348853276469,47.856471
464,19.853952802600404,47.890088
465,19.88441707243612,47.902307
466,19.914881342271837,47.915478
467,19.945345612107552,47.969798
468,19.975809881943267,47.981794
469,20.00627415177898,48.011431
470,20.036738421614697,48.026017
471,20.067202691450415,48.039687
472,20.09766696128613,48.085291
473,20.128131231121845,48.099119
474,20.15859550095756,48.112053
475,20.189059770793275,48.124489
476,20.219524040628993,48.137384
477,20.24998831046471,48.149235
478,20.280452580300423,48.161323
479,20.310916850136138,48.17653
480,20.341381119971857,48.191325
481,20.37184538980757,48.204257
482,20.402309659643286,48.218494
483,20.432773929479,48.234349
484,20.463238199314716,48.281415
485,20.493702469150435,48.307541
486,20.52416673898615,48.319404
487,20.554631008821865,48.343828
488,20.58509527865758,48.356418
489,20.615559548493295,48.370678
490,20.646023818329013,48.38257
491,20.676488088164728,48.408473
492,20.706952358000443,48.420495
493,20.737416627836158,48.434389
494,20.767880897671876,48.446578
495,20.79834516750759,48.459918
496,20.828809437343306,48.579254
497,20.609850423088865,48.591303
498,20.390891408834428,48.616415
499,19.830178458613062,48.668415
500,19.2694655083917,48.687664
501,18.74705273791453,48.699946
502,18.224639967437355,48.739527
503,17.702227196960184,48.754853
504,17.355205135309017,48.769785
505,17.008183073657854,48.79581
506,16.661161012006687,48.839803
507,16.183535053673,48.853364
508,15.705909095339315,48.869907
509,15.22828313700563,48.889662
510,14.750657178671942,48.902419
511,14.273031220338256,48.928889
512,13.887415031296502,48.953769
513,13.501798842254749,48.99352
514,12.85739487216985,49.018966
515,12.535192887127401,49.045176
516,12.212990902084952,49.059275
517,12.185826068852185,49.125005
518,12.158661235619416,49.167837
519,12.131496402386649,49.180627
520,12.104331569153882,49.193973
521,12.077166735921113,49.209679
522,12.050001902688345,49.254539
523,12.022837069455576,49.279166
524,11.99567223622281,49.326713
525,11.431290822916374,49.353835
526,11.428294664775722,49.366728
527,11.425298506635071,49.378339
528,11.42230234849442,49.404296
529,11.42005522988893,49.417985
530,11.417808111283442,49.455147
531,11.415560992677952,49.466963
532,11.413313874072463,49.513517
533,11.434901063935248,49.52595
534,11.456488253798033,49.593619
535,11.478075443660819,49.606246
536,11.499662633523604,49.641952
537,11.52124982338639,49.654397
538,11.542837013249175,49.707234
539,12.965420378573643,49.748619
540,13.384254193072493,49.77392
541,13.803088007571345,49.79132
542,14.221921822070195,49.804549
543,13.942735413168883,49.829103
544,13.663549004267571,49.878614
545,13.830060129917328,49.905592
546,13.996571255567083,49.919697
547,14.16308238121684,49.956957
548,14.329593506866596,49.97417
549,14.496104632516353,49.999246
550,14.66261575816611,50.013696
551,14.829126883815865,50.026379
552,14.995638009465623,50.038804
553,15.162149135115378,50.053616
554,15.328660260765135,50.066834
555,15.495171386414892,50.08076
556,15.661682512064647,50.130893
557,15.828193637714405,50.143521
558,15.994704763364162,50.201708
559,16.161215889013917,50.219108
560,16.327727014663672,50.246128
561,16.49423814031343,50.258436
562,16.660749265963187,50.287982
563,16.827260391612942,50.300495
564,16.9937715172627,50.319371
565,17.160282642912456,50.3463
566,17.32679376856221,50.37579
567,17.493304894211967,50.388001
568,17.659816019861726,50.414047
569,17.82632714551148,50.427138
570,17.99283827116124,50.439691
571,18.159349396810995,50.46377
572,18.32586052246075,50.490202
573,18.492371648110506,50.507587
574,18.658882773760265,50.557471
575,18.82539389941002,50.569988
576,18.991905025059776,50.581863
577,19.158416150709535,50.594449
578,19.32492727635929,50.607143
579,19.491438402009045,50.618842
580,19.6579495276588,50.632596
581,19.82446065330856,50.670117
582,19.990971778958315,50.68536
583,20.157482904608074,50.698808
584,20.32399403025783,50.716928
585,20.490505155907584,50.729657
586,20.65701628155734,50.745381
587,20.823527407207095,50.759207
588,20.990038532856854,50.772331
589,21.15654965850661,50.81126
590,21.323060784156368,50.824795
591,21.489571909806124,50.840193
592,21.65608303545588,50.865951
593,21.822594161105634,50.879798
594,21.98910528675539,50.90668
595,22.15561641240515,50.92573
596,22.322127538054907,50.938121
597,22.488638663704663,50.97615
598,22.655149789354418,50.988808
599,22.821660915004173,51.013881
600,22.98817204065393,51.026496
601,23.154683166303688,51.039639
602,23.321194291953443,51.051848
603,23.487705417603202,51.064051
604,23.654216543252957,51.119799
605,23.193736369050974,51.145532
606,22.73325619484899,51.158062
607,22.5563368917081,51.170578
608,22.37941758856721,51.195949
609,22.20249828542632,51.207801
610,22.02557898228543,51.21994
611,21.84865967914454,51.232242
612,21.72603889637642,51.257655
613,21.603418113608296,51.270385
614,21.480797330840176,51.282392
615,21.358176548072052,51.295598
616,21.235555765303932,51.308111
