,distance,time (s)
0,39.28971683399256,29.007038
1,39.209816843467095,29.020958
2,39.12991685294163,29.034648
3,39.05001686241617,29.054412
4,38.9701168718907,29.06797
5,38.89021688136524,29.079936
6,38.81031689083978,29.092327
7,38.8249871686561,29.105703
8,38.83965744647242,29.119531
9,38.85432772428875,29.133243
10,38.86899800210507,29.147751
11,38.883668279921395,29.160845
12,38.84083582626211,29.174762
13,38.819419599432464,29.188386
14,38.79800337260282,29.201877
15,38.77658714577318,29.215692
16,38.755170918943534,29.229741
17,38.71233846528425,29.24417
18,38.66751730520992,29.257575
19,38.622696145135585,29.270009
20,38.57787498506126,29.282993
21,38.53305382498692,29.297208
22,38.488232664912594,29.310913
23,38.391951923942585,29.322983
24,38.295671182972576,29.336559
25,38.19939044200257,29.350487
26,38.103109701032565,29.364363
27,38.006828960062556,29.378093
28,37.91054821909255,29.389575
29,37.90495501309041,29.401608
30,37.89936180708827,29.413805
31,37.89376860108614,29.426246
32,37.888175395084,29.438337
33,37.88258218908186,29.458291
34,37.80918856978178,29.471917
35,37.735794950481704,29.483626
36,37.66240133118163,29.496004
37,37.58900771188155,29.508297
38,37.51561409258147,29.520932
39,37.442220473281395,29.53426
40,37.286609463834374,29.547414
41,37.13099845438736,29.561163
42,36.97538744494034,29.574281
43,36.81977643549332,29.588053
44,36.6641654260463,29.600337
45,36.50855441659928,29.612016
46,36.339755049883664,29.625806
47,36.170955683168046,29.639854
48,36.00215631645242,29.659836
49,35.8333569497368,29.673916
50,35.664557583021185,29.685386
51,35.479765234160524,29.698115
52,35.29497288529986,29.709716
53,35.1101805364392,29.722239
54,34.925388187578534,29.734765
55,34.74059583871787,29.747392
56,34.55580348985721,29.759972
57,34.52787620557065,29.772445
58,34.49994892128409,29.784509
59,34.472021636997525,29.797352
60,34.444094352710955,29.809973
61,34.41616706842439,29.822747
62,34.38823978413783,29.835071
63,34.19947439095327,29.847003
64,34.01070899776871,29.865786
65,33.82194360458415,29.877416
66,33.633178211399596,29.890015
67,33.444412818215035,29.902395
68,33.255647425030475,29.915503
69,33.21878914644663,29.929026
70,33.18193086786278,29.942876
71,33.14507258927894,29.956579
72,33.10821431069509,29.970454
73,33.07135603211125,29.984246
74,32.96347052469612,29.997772
75,32.855585017280994,30.009761
76,32.74769950986587,30.022675
77,32.63981400245074,30.035179
78,32.531928495035615,30.047346
79,32.42404298762049,30.060132
80,32.15908006274784,30.072442
81,31.89411713787519,30.084327
82,31.629154213002543,30.097458
83,31.3641912881299,30.109644
84,31.09922836325725,30.121779
85,30.8342654383846,30.134293
86,30.605579276540904,30.147656
87,30.376893114697207,30.161775
88,30.148206952853513,30.175379
89,29.919520791009816,30.189706
90,29.69083462916612,30.201206
91,29.46214846732242,30.214513
92,29.199205441432518,30.228356
93,28.936262415542615,30.242247
94,28.67331938965271,30.255799
95,28.410376363762808,30.276291
96,28.147433337872904,30.289822
97,27.84405475977524,30.303608
98,27.540676181677576,30.317785
99,27.23729760357991,30.331361
100,26.933919025482247,30.345383
101,26.630540447384583,30.357177
102,26.39050733905491,30.369374
103,26.150474230725237,30.38168
104,25.910441122395564,30.394325
105,25.67040801406589,30.406524
106,25.43037490573622,30.41998
107,25.190341797406546,30.433979
108,24.897207950223393,30.445869
109,24.604074103040237,30.458613
110,24.310940255857084,30.470413
111,24.01780640867393,30.488242
112,23.724672561490774,30.500226
113,23.43153871430762,30.512658
114,23.129728994913428,30.524733
115,22.827919275519235,30.537838
116,22.526109556125043,30.549877
117,22.224299836730847,30.562835
118,21.922490117336654,30.575643
119,21.62068039794246,30.589664
120,21.334787977948224,30.603571
121,21.048895557953983,30.615078
122,20.763003137959746,30.627543
123,20.47711071796551,30.63961
124,20.191218297971268,30.654096
125,19.90532587797703,30.668045
126,19.529974035859514,30.681888
127,19.154622193742,30.69599
128,18.779270351624483,30.709413
129,18.40391850950697,30.723017
130,18.028566667389452,30.736632
131,17.577790342975405,30.750252
132,17.127014018561358,30.764122
133,16.67623769414731,30.775705
134,16.225461369733264,30.788024
135,15.774685045319217,30.800572
136,15.32390872090517,30.812995
137,14.904921749059648,30.825378
138,14.765259425111141,30.838022
139,14.625597101162635,30.850337
140,14.485934777214128,30.862612
141,14.346272453265621,30.880802
142,14.206610129317113,30.893352
143,14.066947805368606,30.906677
144,13.800422155393555,30.918568
145,13.533896505418506,30.931215
146,13.000845205468403,30.943916
147,12.867582380480878,30.957024
148,12.734319555493354,30.968583
149,12.601056730505828,30.981537
150,12.467793905518302,30.99401
151,12.349454125919284,31.005964
152,12.231114346320265,31.018819
153,12.112774566721246,31.030831
154,12.073327973521573,31.043133
155,12.0338813803219,31.05566
156,11.994434787122227,31.068776
157,11.83600722813935,31.088625
158,11.67757966915647,31.100493
159,11.519152110173593,31.112795
160,11.360724551190716,31.12583
161,11.202296992207836,31.13907
162,11.043869433224959,31.15247
163,11.214206520729606,31.166693
164,11.384543608234253,31.180752
165,11.554880695738898,31.194862
166,11.725217783243545,31.207838
167,11.792290427918097,31.221569
168,11.859363072592648,31.235492
169,11.9264357172672,31.249409
170,11.976740200773115,31.261058
171,12.027044684279028,31.273703
172,12.077349167784941,31.291648
173,12.127653651290856,31.304152
174,12.178587187452456,31.317495
175,12.229520723614055,31.330984
176,12.280454259775654,31.344984
177,12.331387795937253,31.358291
178,12.38232133209885,31.372182
179,12.43325486826045,31.38449
180,12.48418840442205,31.397824
181,12.535121940583648,31.410955
182,12.586055476745248,31.424576
183,12.636989012906847,31.438421
184,20.16524192646664,31.452051
185,23.929368383246533,31.465932
186,27.693494840026432,31.479256
187,27.778081951414745,31.496802
188,27.862669062803057,31.510567
189,27.94725617419137,31.522059
190,28.03184328557968,31.535181
191,28.116430396967992,31.547409
192,28.201017508356305,31.559735
193,28.285604619744618,31.571807
194,28.37019173113293,31.584696
195,28.454778842521243,31.597971
196,28.539365953909556,31.612345
197,28.623953065297865,31.625951
198,28.708540176686178,31.63775
199,28.79312728807449,31.65012
200,28.877714399462803,31.66274
201,28.962301510851116,31.674953
202,29.04688862223943,31.687138
203,29.13147573362774,31.705541
204,29.21606284501605,31.718791
205,29.300649956404364,31.73232
206,29.385237067792676,31.744346
207,29.46982417918099,31.756831
208,29.554411290569302,31.768617
209,29.638998401957615,31.781047
210,29.723585513345924,31.793671
211,29.808172624734237,31.806811
212,29.89275973612255,31.821267
213,29.977346847510862,31.8327
214,30.061933958899175,31.84582
215,30.146521070287488,31.858096
216,30.2311081816758,31.870772
217,30.31569529306411,31.884081
218,30.400282404452422,31.897833
219,30.484869515840735,31.911878
220,30.569456627229048,31.925461
221,30.65404373861736,31.937837
222,30.738630850005674,31.950136
223,30.823217961393986,31.962266
224,30.907805072782295,31.97456
225,30.99239218417061,31.988042
226,31.07697929555892,31.999929
227,31.161566406947234,32.012398
228,31.246153518335547,32.024934
229,31.33074062972386,32.036669
230,31.415327741112172,32.048967
231,31.49991485250048,32.06179
232,31.584501963888794,32.074385
233,31.669089075277107,32.087074
234,31.75367618666542,32.101147
235,31.838263298053732,32.120358
236,31.922850409442045,32.134064
237,32.00743752083036,32.146061
238,32.09202463221867,32.158775
239,32.17661174360698,32.170259
240,32.26119885499529,32.183182
241,32.3457859663836,32.195483
242,32.43037307777192,32.207357
243,32.51496018916023,32.221053
244,32.599547300548544,32.234579
245,32.68413441193685,32.246587
246,32.76872152332517,32.258673
247,32.85330863471348,32.271212
248,32.93789574610179,32.283617
249,33.022482857490104,32.295825
250,33.10706996887841,32.309258
251,33.19165708026673,32.321701
252,33.27624419165504,32.334466
253,33.360831303043355,32.347912
254,33.445418414431664,32.361957
255,33.53000552581997,32.375877
256,33.61459263720829,32.389685
257,33.6991797485966,32.403704
258,33.783766859984915,32.415351
259,33.868353971373224,32.427949
260,33.95294108276154,32.440483
261,34.03752819414985,32.452494
262,34.12211530553816,32.464215
263,34.206702416926476,32.476938
264,34.291289528314785,32.489151
265,34.3758766397031,32.50168
266,34.46046375109141,32.514318
267,34.54505086247973,32.527092
268,34.629637973868036,32.539924
269,34.714225085256345,32.553542
270,34.79881219664466,32.567277
271,34.88339930803297,32.579042
272,34.96798641942129,32.591965
273,35.052573530809596,32.604278
274,35.13716064219791,32.617094
275,35.22174775358622,32.629829
276,35.50329156522451,32.644331
277,35.64406347104365,32.657357
278,35.78483537686279,32.671301
279,35.92560728268193,32.685115
280,36.066379188501074,32.699035
281,36.470945904960665,32.71274
282,36.875512621420256,32.73183
283,37.28007933787984,32.745673
284,37.68464605433943,32.7597
285,38.08921277079902,32.7735
286,38.06520451032475,32.787842
287,38.041196249850465,32.801031
288,37.9931797289019,32.815065
289,37.986320225909246,32.828581
290,37.9794607229166,32.840036
291,37.972601219923945,32.852715
292,37.9657417169313,32.864791
293,37.958882213938644,32.876961
294,37.952022710946,32.889629
295,37.94516320795334,32.902298
296,38.611398054524365,32.915712
297,38.953667581770304,32.934642
298,39.03923496358179,32.948704
299,39.12480234539328,32.962129
300,39.210369727204764,32.975923
301,39.29593710901625,32.99031
302,39.32661623716086,33.003532
303,39.357295365305475,33.015283
304,39.4186536215947,33.028149
305,39.48001187788392,33.039718
306,39.54137013417314,33.052061
307,39.60272839046237,33.064564
308,39.711983047791044,33.076695
309,39.821237705119714,33.089617
310,39.93049236244839,33.102463
311,40.03974701977706,33.116013
312,40.14900167710574,33.136691
313,39.992486024853626,33.149609
314,39.835970372601516,33.163518
315,39.6794547203494,33.177543
316,39.52293906809729,33.191154
317,39.366423415845176,33.2055
318,39.28816558971912,33.219068
319,39.209907763593066,33.233111
320,39.11276801475971,33.246795
321,39.01562826592635,33.260053
322,38.91848851709299,33.273759
323,38.82134876825963,33.285915
324,38.6042325674348,33.297849
325,38.387116366609966,33.310284
326,38.17000016578514,33.323496
327,38.061442065372724,33.341859
328,37.95288396496031,33.355622
329,37.735767764135474,33.369462
330,37.76326257589577,33.382576
331,37.79075738765607,33.395155
332,37.84574701117667,33.407301
333,37.90073663469727,33.419797
334,37.955726258217865,33.432364
335,37.84507190335284,33.444505
336,37.78974472592032,33.457044
337,37.734417548487805,33.468967
338,37.62376319362278,33.481085
339,37.51310883875775,33.493542
340,37.40245448389272,33.505979
341,37.29180012902769,33.518697
342,37.3499714765714,33.531788
343,37.40814282411511,33.546108
344,37.466314171658816,33.559805
345,37.52448551920253,33.574069
346,37.582656866746234,33.585777
347,37.631851527047175,33.598176
348,37.68104618734811,33.610028
349,37.73024084764905,33.622336
350,37.77943550794999,33.634954
351,37.828630168250925,33.647062
352,37.877824828551866,33.65864
353,37.86028037806429,33.671074
354,37.84273592757671,33.683726
355,37.825191477089135,33.696384
356,37.807647026601565,33.708724
357,37.79010257611399,33.72235
358,37.77255812562641,33.735785
359,37.68443056054199,33.753305
360,37.59630299545757,33.764967
361,37.50817543037316,33.77719
362,37.42004786528874,33.789691
363,37.33192030020432,33.802001
364,37.2437927351199,33.81485
365,37.091414025071295,33.827418
366,36.93903531502269,33.840406
367,36.7866566049741,33.852741
368,36.634277894925496,33.865839
369,36.481899184876895,33.879188
370,36.32952047482829,33.89158
371,36.14943774181987,33.905228
372,35.96935500881143,33.917616
373,35.78927227580301,33.929618
374,35.609189542794574,33.948072
375,35.42910680978615,33.96089
376,35.36019249218849,33.973478
377,35.29127817459083,33.98639
378,35.22236385699317,33.999486
379,35.1534495393955,34.012759
380,35.08453522179784,34.026446
381,35.01562090420018,34.040463
382,34.70132166968708,34.054862
383,34.38702243517398,34.068601
384,34.07272320066089,34.082719
385,33.75842396614779,34.096827
386,33.44412473163469,34.111064
387,33.32848671024299,34.124795
388,33.2128486888513,34.136679
389,33.097210667459606,34.154616
390,32.98157264606791,34.167044
391,32.86593462467622,34.179137
392,32.750296603284525,34.191956
393,32.41138716705226,34.205294
394,32.07247773082,34.219612
395,31.73356829458773,34.233456
396,31.394658858355466,34.248029
397,31.055749422123203,34.259463
398,30.95519631639592,34.27185
399,30.85464321066864,34.284383
400,30.754090104941362,34.297111
401,30.65353699921408,34.310028
402,30.552983893486797,34.324253
403,30.452430787759518,34.337677
404,30.065428252124192,34.357605
405,29.678425716488864,34.37108
406,29.29142318085354,34.385002
407,28.90442064521821,34.399314
408,28.517418109582884,34.412809
409,28.301725230791995,34.426295
410,28.086032352001105,34.440394
411,27.870339473210215,34.454074
412,27.65464659441933,34.465698
413,27.43895371562844,34.47877
414,27.22326083683755,34.490588
415,27.026692717499124,34.504639
416,26.830124598160694,34.516239
417,26.633556478822268,34.529298
418,26.436988359483838,34.541238
419,26.24042024014541,34.559915
420,25.94447232947213,34.572268
421,25.648524418798853,34.584971
422,25.352576508125573,34.597123
423,25.056628597452292,34.609965
424,24.760680686779015,34.623882
425,24.464732776105734,34.637669
426,24.17954588318073,34.651217
427,23.894358990255725,34.665209
428,23.60917209733072,34.679317
429,23.323985204405716,34.690828
430,23.03879831148071,34.704271
431,22.753611418555707,34.716232
432,22.394118848316143,34.728856
433,22.214372563196363,34.741684
434,22.034626278076583,34.754174
435,21.67513370783702,34.767962
436,21.31564113759746,34.781173
437,20.956148567357896,34.79313
438,20.900772398904113,34.806359
439,20.845396230450334,34.818066
440,20.79002006199655,34.83026
441,20.734643893542767,34.84309
442,20.679267725088987,34.856008
443,20.623891556635204,34.868434
444,20.275000385805004,34.880514
445,19.926109214974808,34.893161
446,19.577218044144608,34.904958
447,19.40277245872951,34.917072
448,19.228326873314412,34.929683
449,18.879435702484212,34.942208
450,18.35806361563709,34.954152
451,17.83669152878997,34.972112
452,17.57600548536641,34.984439
453,17.315319441942847,34.996858
454,17.054633398519286,35.009344
455,16.793947355095725,35.0217
456,16.39164150732917,35.033817
457,15.989335659562611,35.046203
458,15.587029811796056,35.059126
459,15.184723964029498,35.07197
460,14.782418116262942,35.085928
461,14.354749828991569,35.100006
462,13.927081541720197,35.113726
463,13.499413254448825,35.127681
464,13.071744967177452,35.139401
465,12.644076679906078,35.151961
466,12.216408392634706,35.164256
467,12.313058638462094,35.176749
468,12.345275387071222,35.188996
469,12.377492135680352,35.201249
470,12.409708884289481,35.213794
471,12.433871445746327,35.226202
472,12.458034007203175,35.239882
473,12.482196568660022,35.253672
474,12.506359130116868,35.267894
475,13.325010976172006,35.27938
476,13.461452950514529,35.29172
477,13.597894924857052,35.303912
478,13.734336899199576,35.316246
479,13.870778873542099,35.328824
480,14.007220847884621,35.34163
481,14.143662822227144,35.354266
482,14.01840469598536,35.366773
483,13.893146569743575,35.384655
484,13.767888443501791,35.398375
485,13.642630317260007,35.412756
486,13.517372191018222,35.426778
487,13.392114064776438,35.439776
488,13.266855938534654,35.453456
489,13.14159781229287,35.467537
490,13.016339686051085,35.479175
491,12.891081559809301,35.491815
492,13.30263745285508,35.504226
493,13.714193345900858,35.516536
494,13.87881570311917,35.528839
495,14.04343806033748,35.541207
496,14.208060417555792,35.55378
497,14.372682774774104,35.566211
498,14.537305131992415,35.578313
499,15.000852636712311,35.590557
500,15.464400141432208,35.602914
501,15.927947646152104,35.615174
502,16.391495150872,35.627487
503,16.855042655591895,35.640345
504,17.318590160311793,35.652291
505,17.78213766503169,35.664514
506,18.245685169751585,35.676943
507,18.70923267447148,35.689255
508,19.172780179191378,35.70154
509,19.436357006774397,35.715288
510,19.699933834357417,35.729225
511,19.963510661940436,35.743322
512,20.227087489523456,35.755851
513,20.49066431710647,35.769787
514,20.75424114468949,35.78347
515,21.01781797227251,35.797407
516,21.28139479985553,35.809125
517,21.54497162743855,35.821801
518,21.80854845502157,35.834
519,22.07212528260459,35.846433
520,22.335702110187608,35.858861
521,22.599278937770627,35.871535
522,22.862855765353647,35.884865
523,23.126432592936666,35.897985
524,23.390009420519682,35.912037
525,23.653586248102705,35.924389
526,23.91716307568572,35.936434
527,24.18073990326874,35.948725
528,24.44431673085176,35.961019
529,24.70789355843478,35.973459
530,24.9714703860178,35.985889
531,25.23504721360082,35.998741
532,25.498624041183838,36.01072
533,25.762200868766858,36.023284
534,26.025777696349877,36.03587
535,26.289354523932893,36.048555
536,26.552931351515916,36.062612
537,26.816508179098932,36.076216
538,27.08008500668195,36.089515
539,27.34366183426497,36.103455
540,27.60723866184799,36.117112
541,27.87081548943101,36.129143
542,28.13439231701403,36.141735
543,28.39796914459705,36.154951
544,28.661545972180065,36.167292
545,28.925122799763088,36.179378
546,29.188699627346104,36.198455
547,29.452276454929127,36.210018
548,29.715853282512143,36.222924
549,29.979430110095162,36.235659
550,30.24300693767818,36.24759
551,30.5065837652612,36.259785
552,30.77016059284422,36.27373
553,31.03373742042724,36.287336
554,31.29731424801026,36.300969
555,31.261622235019654,36.312823
556,31.225930222029046,36.324749
557,31.19023820903844,36.338164
558,31.154546196047836,36.351087
559,31.118854183057227,36.364534
560,31.083162170066622,36.378217
561,31.43027915913546,36.392591
562,31.777396148204293,36.40663
563,32.124513137273134,36.419776
564,32.471630126341964,36.431995
565,32.8187471154108,36.445386
566,33.16586410447964,36.459253
567,33.512981093548476,36.472425
568,33.86009808261731,36.48582
569,34.20721507168615,36.499474
570,34.55433206075499,36.513537
571,34.90144904982382,36.527514
572,35.248566038892655,36.541497
573,35.59568302796149,36.555398
574,35.94280001703033,36.56898
575,36.28991700609917,36.582157
576,36.637033995168004,36.595928
577,36.98415098423684,36.60981
578,37.33126797330567,36.621688
579,37.67838496237451,36.635252
580,38.025501951443346,36.649065
581,38.37261894051218,36.661167
582,38.43657718156921,36.673231
583,38.50053542262625,36.685667
584,38.56449366368328,36.697767
585,38.66043102526882,36.710297
586,38.75636838685437,36.723514
587,38.85230574843992,36.737771
588,38.948243110025466,36.751559
589,38.94215890650359,36.765896
590,38.93607470298171,36.777256
591,38.929990499459834,36.79069
592,38.923906295937954,36.806778
593,38.922385245057484,36.81919
594,38.920864194177014,36.831945
595,38.919343143296544,36.844735
596,38.917822092416074,36.856353
597,38.91630104153561,36.868853
598,38.91477999065514,36.881298
599,38.91325893977467,36.893987
600,38.9117378888942,36.906189
601,37.96197638240973,36.918036
602,37.724536005788615,36.931824
603,37.4870956291675,36.944971
604,37.24965525254638,36.958981
605,37.01221487592527,36.972606
606,36.95329358461306,36.986535
607,36.89437229330085,37.00596
608,36.83545100198864,37.017605
609,36.77652971067643,37.030104
610,36.65868712805201,37.042356
611,36.59487206975196,37.054989
612,36.531057011451914,37.067167
613,36.46724195315186,37.07986
614,36.40342689485181,37.092106
615,36.33961183655177,37.105128
616,36.27579677825172,37.117232
617,36.29165713150262,37.128842
618,36.30751748475351,37.141672
619,36.32337783800441,37.154198
620,36.339238191255305,37.166098
