,distance,time (s)
0,15.692672983385146,29.007038
1,15.692672983385146,29.054412
2,15.683015696430957,29.092327
3,15.673358409476766,29.105703
4,15.663701122522577,29.147751
5,15.649215192091292,29.188386
6,15.634729261660008,29.229741
7,15.630590424393926,29.270009
8,15.626451587127844,29.310913
9,15.622312749861763,29.350487
10,15.618173912595683,29.364363
11,15.614035075329602,29.483626
12,15.60989623806352,29.520932
13,15.605757400797438,29.561163
14,15.374103497124977,29.588053
15,15.142449593452518,29.600337
16,14.910795689780059,29.685386
17,14.679141786107598,29.709716
18,14.601923818216777,29.747392
19,14.524705850325958,29.784509
20,14.447487882435137,29.847003
21,14.215833978762678,29.890015
22,13.984180075090219,29.929026
23,13.752526171417758,29.970454
24,13.636699219581526,30.009761
25,13.520872267745297,30.047346
26,13.289218364072838,30.109644
27,12.878369038311359,30.147656
28,12.46751971254988,30.189706
29,12.056670386788403,30.228356
30,11.645821061026924,30.276291
31,11.234971735265445,30.317785
32,10.824122409503966,30.331361
33,10.413273083742489,30.369374
34,10.00242375798101,30.394325
35,9.59157443221953,30.433979
36,9.180725106458052,30.470413
37,8.769875780696573,30.512658
38,8.359026454935094,30.549877
39,7.948177129173617,30.589664
40,7.917898878215542,30.627543
41,7.887620627257467,30.654096
42,7.87248150177843,30.69599
43,7.857342376299393,30.750252
44,7.847249625980034,30.788024
45,7.837156875660676,30.825378
46,7.827064125341317,30.862612
47,7.816971375021959,30.906677
48,7.8068786247026,30.943916
49,7.796785874383242,30.981537
50,7.766507623425167,31.018819
51,7.756414873105809,31.05566
52,7.7463221227864505,31.100493
53,7.7362293724670925,31.13907
54,9.515574929579895,31.180752
55,10.108690115284162,31.221569
56,10.70180530098843,31.261058
57,11.294920486692698,31.304152
58,11.350525035352472,31.344984
59,11.406129584012248,31.38449
60,11.461734132672023,31.424576
61,11.517338681331799,31.479256
62,11.572943229991573,31.522059
63,11.628547778651349,31.559735
64,11.684152327311123,31.597971
65,11.7397568759709,31.612345
66,11.795361424630673,31.674953
67,11.85096597329045,31.718791
68,11.906570521950224,31.73232
69,11.96217507061,31.756831
70,12.017779619269774,31.793671
71,12.07338416792955,31.84582
72,12.128988716589324,31.925461
73,12.184593265249099,31.950136
74,12.240197813908875,31.988042
75,12.29580236256865,32.024934
76,12.351406911228425,32.06179
77,12.4070114598882,32.101147
78,12.462616008547975,32.120358
79,12.51822055720775,32.146061
80,12.573825105867526,32.183182
81,12.6294296545273,32.221053
82,12.685034203187076,32.258673
83,12.74063875184685,32.321701
84,12.796243300506626,32.375877
85,12.8518478491664,32.415351
86,12.907452397826177,32.476938
87,12.96305694648595,32.539924
88,13.018661495145725,32.579042
89,13.074266043805501,32.617094
90,13.056736511557636,32.671301
91,13.039206979309771,32.71274
92,13.021677447061908,32.73183
93,13.004147914814043,32.7735
94,12.980775205150223,32.815065
95,12.957402495486404,32.852715
96,12.934029785822585,32.876961
97,12.863911656831126,32.915712
98,12.840538947167307,32.962129
99,12.817166237503487,33.003532
100,12.793793527839668,33.039718
101,12.785028761715736,33.102463
102,12.776263995591803,33.163518
103,12.767499229467871,33.2055
104,12.758734463343938,33.246795
105,12.749969697220006,33.285915
106,12.741204931096075,33.323496
107,12.732440164972141,33.369462
108,12.72367539884821,33.407301
109,12.84290880694353,33.444505
110,12.962142215038849,33.481085
111,13.200609031229487,33.505979
112,13.439075847420124,33.546108
113,13.558309255515443,33.585777
114,13.677542663610764,33.647062
115,13.610856984137683,33.683726
116,13.544171304664603,33.72235
117,13.477485625191523,33.764967
118,13.277428586772283,33.827418
119,13.077371548353042,33.865839
120,12.877314509933804,33.948072
121,12.677257471514563,33.98639
122,12.477200433095323,34.026446
123,12.277143394676083,34.068601
124,11.917663666041628,34.111064
125,11.558183937407176,34.154616
126,11.378444073089948,34.191956
127,11.198704208772721,34.233456
128,10.839224480138268,34.27185
129,10.479744751503814,34.310028
130,10.120265022869361,34.337677
131,9.760785294234907,34.357605
132,9.401305565600454,34.399314
133,9.041825836966,34.454074
134,8.682346108331547,34.490588
135,8.50260624401432,34.529298
136,8.322866379697093,34.572268
137,8.366266290340555,34.609965
138,8.409666200984018,34.665209
139,8.496466022270942,34.704271
140,8.583265843557868,34.728856
141,8.62666575420133,34.767962
142,8.670065664844794,34.806359
143,8.756865486131717,34.84309
144,8.769265460601279,34.880514
145,8.781665435070838,34.893161
146,8.7940654095404,34.917072
147,8.806465384009961,34.954152
148,8.818865358479522,34.996858
149,8.831265332949082,35.033817
150,8.843665307418643,35.07197
151,8.76275501608308,35.127681
152,8.681844724747517,35.151961
153,8.600934433411954,35.188996
154,8.520024142076391,35.226202
155,8.439113850740828,35.267894
156,8.388544918656102,35.303912
157,8.337975986571374,35.328824
158,8.287407054486648,35.366773
159,8.23683812240192,35.412756
160,8.186269190317194,35.453456
161,8.135700258232468,35.467537
162,8.08513132614774,35.504226
163,8.034562394063014,35.541207
164,7.967137151283379,35.566211
165,7.899711908503743,35.602914
166,7.832286665724107,35.640345
167,7.764861422944471,35.676943
168,7.697436180164836,35.70154
169,7.6300109373852,35.715288
170,7.866813956800318,35.797407
171,8.103616976215434,35.834
172,8.340419995630553,35.871535
173,8.57722301504567,35.912037
174,8.814026034460788,35.948725
175,9.050829053875905,35.985889
176,9.287632073291022,36.023284
177,9.52443509270614,36.048555
178,9.761238112121257,36.089515
179,9.998041131536375,36.129143
180,10.234844150951492,36.167292
181,10.471647170366609,36.210018
182,10.708450189781727,36.24759
183,10.945253209196844,36.287336
184,11.182056228611962,36.324749
185,11.41885924802708,36.364534
186,11.655662267442196,36.40663
187,11.892465286857314,36.445386
188,12.129268306272431,36.48582
189,12.36607132568755,36.541497
190,12.602874345102666,36.56898
191,12.839677364517783,36.582157
192,13.076480383932902,36.621688
193,13.31328340334802,36.661167
194,13.550086422763137,36.685667
195,13.786889442178254,36.723514
196,14.02369246159337,36.737771
197,14.260495481008489,36.81919
198,14.497298500423607,36.856353
199,14.734101519838724,36.881298
200,14.97090453925384,36.918036
201,15.207707558668957,36.958981
202,15.444510578084076,37.017605
203,14.76154993547911,37.054989
204,14.078589292874142,37.092106
205,13.96297472870667,37.128842
206,13.924436540650845,37.166098
207,13.885898352595023,37.211044
208,13.847360164539198,37.252964
209,13.789552882455462,37.294515
210,13.731745600371726,37.335272
211,13.616131036204255,37.377272
212,13.500516472036782,37.418524
213,13.442709189953046,37.45472
214,13.384901907869311,37.492087
215,13.327094625785575,37.529273
216,13.269287343701839,37.567052
217,13.059309780118609,37.59095
218,12.84933221653538,37.628102
219,12.63935465295215,37.642037
220,12.429377089368922,37.681167
221,12.219399525785692,37.75689
222,12.009421962202463,37.818598
223,11.904433180410848,37.855464
224,11.799444398619233,37.880412
225,11.589466835036003,37.919422
226,11.379489271452774,37.960617
227,11.169511707869544,38.001941
228,10.959534144286316,38.043225
229,10.749556580703086,38.080827
230,10.473594916585698,38.118157
231,10.335614084527005,38.143985
232,10.19763325246831,38.185694
233,9.921671588350923,38.228467
234,9.645709924233536,38.265661
235,9.507729092174843,38.302765
236,9.36974826011615,38.32708
237,9.093786595998763,38.367361
238,8.95580576394007,38.381392
239,8.817824931881376,38.428325
240,8.679844099822681,38.470105
241,8.541863267763988,38.509543
242,8.2659016036466,38.562228
243,8.330453186364382,38.59848
244,8.395004769082163,38.64099
245,8.459556351799945,38.682626
246,8.65321109995329,38.723952
247,8.846865848106635,38.764524
248,8.885596797737303,38.802652
249,8.924327747367974,38.845462
250,8.963058696998642,38.883243
251,9.001789646629312,38.920464
252,9.04052059625998,38.959033
253,9.105072178977762,39.000594
254,9.169623761695544,39.045946
255,9.234175344413325,39.059939
256,9.154374709843939,39.100598
257,9.127774498320811,39.140459
258,9.101174286797683,39.18132
259,9.074574075274555,39.266233
260,8.994773440705169,39.303971
261,8.914972806135784,39.342483
262,8.9092727608094,39.380637
263,8.903572715483016,39.422476
264,8.89787267015663,39.464478
265,8.892172624830245,39.505899
266,8.886472579503861,39.560838
267,8.880772534177476,39.602062
268,8.875072488851092,39.647917
269,8.869372443524707,39.686015
270,8.863672398198322,39.723392
271,8.857972352871938,39.760628
272,8.852272307545553,39.797842
273,8.846572262219167,39.841069
274,8.840872216892784,39.879865
275,8.835172171566398,39.920699
276,9.113102268399992,39.961744
277,9.391032365233585,40.002837
278,9.668962462067176,40.047917
279,9.94689255890077,40.086027
280,10.224822655734362,40.127331
281,10.502752752567956,40.168719
282,10.780682849401547,40.209726
283,11.05861294623514,40.254266
284,11.336543043068733,40.292326
285,11.614473139902326,40.333681
286,11.89240323673592,40.374925
287,12.170333333569513,40.4159
288,12.448263430403104,40.460062
289,12.726193527236697,40.498059
290,13.206012185025838,40.54011
291,13.68583084281498,40.581547
292,13.836759908366918,40.622612
293,13.987688973918855,40.666277
294,14.088308350953481,40.69063
295,14.188927727988105,40.727885
296,14.28954710502273,40.76573
297,14.591405236126604,40.803267
298,14.742334301678543,40.840009
299,14.89326336723048,40.882719
300,14.96872790000645,40.920213
301,15.044192432782417,40.961202
302,15.119656965558386,40.999074
303,15.195121498334355,41.039772
304,15.270586031110325,41.086493
305,15.346050563886294,41.128067
306,15.421515096662262,41.165084
307,15.496979629438231,41.205688
308,15.33498930155815,41.244181
309,15.172998973678066,41.277601
310,15.011008645797983,41.317219
311,14.8490183179179,41.354511
312,14.687027990037816,41.391659
313,14.525037662157734,41.428291
314,14.20105700639757,41.48983
315,13.877076350637402,41.526892
316,13.553095694877237,41.564425
317,13.501047765320632,41.588639
318,13.448999835764024,41.626841
319,13.34490397665081,41.669422
320,13.240808117537599,41.719693
321,13.136712258424385,41.76029
322,13.032616399311172,41.801005
323,12.928520540197958,41.842376
324,12.824424681084746,41.856601
325,12.720328821971533,41.884917
326,12.61623296285832,41.920922
327,12.512137103745106,41.959201
328,12.408041244631894,42.012442
329,12.30394538551868,42.037051
330,12.199849526405467,42.074139
331,11.857199694585379,42.110645
332,11.514549862765291,42.135685
333,11.171900030945203,42.174429
334,10.829250199125116,42.212264
335,10.486600367305028,42.254167
336,10.14395053548494,42.301985
337,9.801300703664852,42.315947
338,9.458650871844764,42.357461
339,9.28732595593472,42.398908
340,9.116001040024678,42.454154
341,8.773351208204588,42.497378
342,8.430701376384501,42.53462
343,8.088051544564413,42.572509
344,8.223682734672094,42.597625
345,8.359313924779775,42.636375
346,8.376267823543234,42.681871
347,8.393221722306695,42.720723
348,8.410175621070156,42.75979
349,8.427129519833615,42.784668
350,8.444083418597074,42.863301
351,8.461037317360535,42.883111
352,8.477991216123996,42.920955
353,8.494945114887456,42.958324
354,8.540155511590015,42.997938
355,8.585365908292577,43.0391
356,8.630576304995136,43.096845
357,8.647022726432555,43.135112
358,8.663469147869971,43.176402
359,8.67991556930739,43.218199
360,8.696361990744807,43.255191
361,8.712808412182225,43.297462
362,8.729254833619642,43.338669
363,8.74570125505706,43.379379
364,8.762147676494477,43.420332
365,8.778594097931895,43.461292
366,8.795040519369312,43.474905
367,8.81148694080673,43.50323
368,8.992397576618323,43.556174
369,9.377462919084785,43.595314
370,9.762528261551248,43.636669
371,10.14759360401771,43.675747
372,10.53265894648417,43.722591
373,10.917724288950634,43.761489
374,11.302789631417095,43.798408
375,11.407807452089767,43.83637
376,11.512825272762438,43.898166
377,11.61784309343511,43.937613
378,11.72286091410778,43.978915
379,11.827878734780452,43.99261
380,11.932896555453123,44.031494
381,12.037914376125794,44.069344
382,12.142932196798466,44.112205
383,12.247950017471137,44.136595
384,12.352967838143808,44.174274
385,12.45798565881648,44.211081
386,12.56300347948915,44.24929
387,12.668021300161824,44.313188
388,12.773039120834495,44.350651
389,12.878056941507166,44.38773
390,12.983074762179838,44.425783
391,13.088092582852509,44.468167
392,13.19311040352518,44.532507
393,13.298128224197852,44.575378
394,13.403146044870523,44.612002
395,13.508163865543194,44.649988
396,13.613181686215865,44.68991
397,14.242704548502664,44.707446
398,14.87222741078946,44.746243
399,14.99813198324682,44.785655
400,15.12403655570418,44.824466
401,15.249941128161538,44.862139
402,15.375845700618898,44.903593
403,15.501750273076258,44.931985
404,15.711591227171857,44.969566
405,15.921432181267457,45.010613
406,16.131273135363056,45.090898
407,15.948475021714861,45.111195
408,15.765676908066666,45.136723
409,15.729117285337027,45.210696
410,15.692557662607388,45.248069
411,15.65599803987775,45.260763
412,15.61943841714811,45.284186
413,15.582878794418471,45.327319
414,15.400080680770277,45.364789
415,15.30868162394618,45.40213
416,15.217282567122083,45.439694
417,15.034484453473889,45.476516
418,14.851686339825694,45.522327
419,14.668888226177499,45.563622
420,14.470565168888811,45.618699
421,14.371403640244466,45.657324
422,14.272242111600123,45.693869
423,14.073919054311435,45.735987
424,13.875595997022748,45.775811
425,13.67727293973406,45.817231
426,13.47894988244537,45.857975
427,13.280626825156682,45.897296
428,13.082303767867995,45.94093
429,12.883980710579307,45.97766
430,12.685657653290619,46.015748
431,12.487334596001931,46.055086
432,12.270979451656086,46.096346
433,12.162801879483162,46.140256
434,12.054624307310238,46.181185
435,11.838269162964393,46.242659
436,11.78418037687793,46.280471
437,11.73009159079147,46.321694
438,11.676002804705009,46.36305
439,11.621914018618547,46.403166
440,11.4055588742727,46.440193
441,11.333440492824085,46.481168
442,11.261322111375469,46.541924
443,11.189203729926854,46.580769
444,10.887601580570117,46.620898
445,10.736800505891747,46.657649
446,10.585999431213379,46.694891
447,10.284397281856641,46.719003
448,9.982795132499904,46.756448
449,9.681192983143166,46.781363
450,9.379590833786429,46.819629
451,9.077988684429691,46.856774
452,8.927187609751321,46.894438
453,8.776386535072954,46.930964
454,8.625585460394586,46.975863
455,8.474784385716216,47.015271
456,8.399383848377031,47.052266
457,8.323983311037846,47.105439
458,8.248582773698663,47.15125
459,8.173182236359478,47.192846
460,8.214164901245734,47.232755
461,8.255147566131988,47.269107
462,8.296130231018244,47.310614
463,8.3371128959045,47.35853
464,8.342967562316822,47.398988
465,8.348822228729144,47.438382
466,8.354676895141466,47.475733
467,8.360531561553788,47.512595
468,8.36638622796611,47.549743
469,8.372240894378432,47.587998
470,8.378095560790754,47.628851
471,8.383950227203078,47.670501
472,8.3898048936154,47.712631
473,8.395659560027722,47.797346
474,8.401514226440044,47.837384
475,8.407368892852366,47.875894
476,8.413223559264688,47.914181
477,8.41907822567701,47.955623
478,8.732897121382763,47.974988
479,9.046716017088517,48.016924
480,9.360534912794272,48.053435
481,9.674353808500024,48.094476
482,9.988172704205777,48.136212
483,10.301991599911531,48.163548
484,10.615810495617286,48.182866
485,10.929629391323038,48.224417
486,11.24344828702879,48.266081
487,11.557267182734545,48.305645
488,11.8710860784403,48.343461
489,12.184904974146052,48.387103
490,12.498723869851805,48.425547
491,12.81254276555756,48.465333
492,12.264198349993357,48.501996
493,12.185863433484187,48.541583
494,12.107528516975014,48.589052
495,12.029193600465844,48.626897
496,11.950858683956671,48.664283
497,11.8725237674475,48.702046
498,11.794188850938328,48.743012
499,11.715853934429157,48.804971
500,12.112500989878887,48.8417
501,12.509148045328615,48.879616
502,12.905795100778345,48.917588
503,13.302442156228075,48.981662
504,13.699089211677805,48.999327
505,14.095736267127533,49.025405
506,14.492383322577263,49.062978
507,14.889030378026993,49.102668
508,15.285677433476721,49.140907
509,15.68232448892645,49.182192
510,16.07897154437618,49.224452
511,16.039224858907527,49.26339
512,16.02597596375131,49.305109
513,16.01272706859509,49.346201
514,15.999478173438874,49.387526
515,15.95973148797022,49.403797
516,15.919984802501567,49.441919
517,15.880238117032912,49.468078
518,15.840491431564258,49.505344
519,15.800744746095605,49.543007
520,15.760998060626951,49.581819
521,15.33044700479666,49.626869
522,14.89989594896637,49.663593
523,14.469344893136078,49.700543
524,14.038793837305786,49.741267
525,13.82351830939064,49.784885
526,13.608242781475495,49.826641
527,13.177691725645204,49.865631
528,12.747140669814913,49.928668
529,12.316589613984622,49.967705
530,11.886038558154329,50.030586
531,11.455487502324038,50.067673
532,11.140781269088217,50.107908
533,10.983428152470307,50.174418
534,10.826075035852396,50.23127
535,10.511368802616577,50.267778
536,10.196662569380756,50.305268
537,9.881956336144935,50.342257
538,9.567250102909114,50.367316
539,9.252543869673293,50.426059
540,8.937837636437473,50.450108
541,8.623131403201652,50.490876
542,8.308425169965831,50.532046
543,7.993718936730011,50.573767
544,7.9506510452564045,50.611585
545,7.907583153782798,50.650027
546,7.864515262309191,50.686936
547,7.842981316572388,50.724895
548,7.821447370835585,50.761742
549,7.814269388923318,50.798763
550,7.8070914070110495,50.823402
551,7.799913425098782,50.836811
552,7.792735443186515,50.875117
553,7.785557461274246,50.91494
554,7.778379479361979,50.952771
555,7.756845533625175,50.97698
556,7.735311587888372,51.015476
557,7.713777642151569,51.056475
558,7.692243696414765,51.092823
559,7.858520105940672,51.154277
560,8.024796515466578,51.179226
561,8.191072924992485,51.234483
562,8.689902153570202,51.272105
563,8.789667999285745,51.31188
564,8.889433845001289,51.336767
565,8.989199690716834,51.374804
566,9.088965536432378,51.42111
567,9.188731382147921,51.458926
568,9.43814599643678,51.513721
569,9.68756061072564,51.554567
570,10.022440807169557,51.595735
571,10.357321003613475,51.650463
572,10.69220120005739,51.687746
573,11.027081396501307,51.726725
574,11.361961592945224,51.753481
575,11.69684178938914,51.792785
576,12.031721985833057,51.838492
577,12.366602182276974,51.875934
578,12.465825944186284,51.913007
579,12.565049706095591,51.950688
580,12.6642734680049,51.98751
581,12.76349722991421,52.031075
582,12.862720991823517,52.067876
583,12.961944753732826,52.10689
584,13.061168515642134,52.146137
585,13.160392277551443,52.187771
586,13.259616039460752,52.226085
587,13.35883980137006,52.244221
588,13.458063563279369,52.285713
589,13.557287325188678,52.326672
590,13.656511087097986,52.363423
591,13.755734849007295,52.400663
592,13.854958610916604,52.438441
593,13.954182372825912,52.475782
594,14.053406134735221,52.512221
595,14.152629896644529,52.55115
596,14.251853658553838,52.592404
597,14.351077420463147,52.633557
598,14.450301182372455,52.64975
599,14.549524944281764,52.687199
600,14.648748706191071,52.727872
601,14.74797246810038,52.769008
602,14.84719623000969,52.810256
603,14.946419991918997,52.869736
604,15.045643753828307,52.893933
605,15.038075366741499,52.931755
606,15.034291173198095,52.96866
607,15.030506979654692,53.005776
608,15.022938592567884,53.047776
609,15.015370205481076,53.08533
610,14.943582491054737,53.125125
611,14.871794776628398,53.161251
612,14.843079690857863,53.200565
613,14.814364605087327,53.239071
614,14.78564951931679,53.280455
615,14.756934433546254,53.31782
616,14.728219347775719,53.35473
617,14.65643163334938,53.39225
618,14.58464391892304,53.429616
619,14.441068490070363,53.471974
620,14.297493061217684,53.508936
