,distance,time (s)
0,19.71266634428086,29.012329
1,19.38559156466649,29.037412
2,19.058516785052127,29.043419
3,18.73144200543776,29.052815
4,18.404367225823393,29.065119
5,18.07729244620903,29.077646
6,17.75021766659466,29.096077
7,17.500074881311857,29.102126
8,17.24993209602905,29.108281
9,16.999789310746245,29.114647
10,16.74964652546344,29.120721
11,16.499503740180636,29.126849
12,16.249360954897828,29.13272
13,15.999218169615023,29.138979
14,15.749075384332219,29.14518
15,15.498932599049413,29.176309
16,14.389926096612587,29.188874
17,13.280919594175762,29.214051
18,12.171913091738936,29.238927
19,11.905195359289134,29.25451
20,11.638477626839332,29.260306
21,11.371759894389529,29.266978
22,11.305080461277079,29.273991
23,11.238401028164628,29.307472
24,11.171721595052176,29.313939
25,11.105042161939727,29.320072
26,11.159918712982083,29.339809
27,11.21479526402444,29.356911
28,11.233087447705225,29.363941
29,11.251379631386012,29.37036
30,11.269671815066797,29.404944
31,11.31445939800726,29.411757
32,11.359246980947725,29.418704
33,11.404034563888189,29.432073
34,11.471215938298883,29.445982
35,11.538397312709579,29.459923
36,11.557591991112634,29.467186
37,11.576786669515691,29.480996
38,11.595981347918746,29.488044
39,11.615176026321803,29.500508
40,11.634370704724859,29.519161
41,11.653565383127916,29.52555
42,11.67276006153097,29.53199
43,11.739634182150603,29.544413
44,11.806508302770236,29.550764
45,11.65669896354372,29.579203
46,11.506889624317203,29.585369
47,11.357080285090687,29.591616
48,11.20727094586417,29.616866
49,11.352541602970746,29.637855
50,11.497812260077323,29.650014
51,11.643082917183898,29.656351
52,11.788353574290475,29.671937
53,11.93362423139705,29.684279
54,12.078894888503626,29.690445
55,12.224165545610203,29.721374
56,12.369436202716779,29.733436
57,12.514706859823354,29.739902
58,12.659977516929931,29.761365
59,12.805248174036507,29.780233
60,12.950518831143082,29.824651
61,13.09578948824966,29.86946
62,13.241060145356235,29.876668
63,13.386330802462812,29.895025
64,13.531601459569387,29.929218
65,13.676872116675963,29.977222
66,13.82214277378254,29.995736
67,13.967413430889115,30.002404
68,14.112684087995692,30.009604
69,14.257954745102268,30.015414
70,14.403225402208843,30.027765
71,14.548496059315418,30.059316
72,14.693766716421996,30.086747
73,14.839037373528573,30.113224
74,14.984308030635148,30.119025
75,15.129578687741724,30.125261
76,15.274849344848299,30.156172
77,15.420120001954876,30.162166
78,15.565390659061451,30.168538
79,15.710661316168029,30.181599
80,15.855931973274604,30.188262
81,16.00120263038118,30.195124
82,16.14647328748776,30.201976
83,16.29174394459433,30.226781
84,16.43701460170091,30.235618
85,16.582285258807484,30.241922
86,16.72755591591406,30.266536
87,16.872826573020635,30.272856
88,17.01809723012721,30.279279
89,17.16336788723379,30.306801
90,17.308638544340365,30.320873
91,17.45390920144694,30.341311
92,17.599179858553516,30.382564
93,17.74445051566009,30.388484
94,17.88972117276667,30.394828
95,18.034991829873245,30.401017
96,18.18026248697982,30.413258
97,18.325533144086396,30.419809
98,18.47080380119297,30.434814
99,18.61607445829955,30.441095
100,18.761345115406126,30.473261
101,18.9066157725127,30.479682
102,19.051886429619277,30.486574
103,19.197157086725852,30.507898
104,19.34242774383243,30.513664
105,19.487698400939003,30.520435
106,19.632969058045582,30.537605
107,19.778239715152157,30.551959
108,19.923510372258733,30.559076
109,20.06878102936531,30.573232
110,20.214051686471883,30.58032
111,20.359322343578462,30.613666
112,20.504593000685038,30.644045
113,20.649863657791613,30.657641
114,20.795134314898192,30.67121
115,20.940404972004764,30.678316
116,21.085675629111343,30.684938
117,21.230946286217918,30.69787
118,22.527979348245136,30.738635
119,22.79601171883342,30.752566
120,22.88535584236285,30.766218
121,22.974699965892274,30.773167
122,23.064044089421703,30.787003
123,23.198060274715843,30.800712
124,23.332076460009986,30.814826
125,24.03584002368962,30.821584
126,24.211780914609527,30.82831
127,24.387721805529438,30.869533
128,24.563662696449345,30.883372
129,24.739603587369253,30.890362
130,24.528405869756355,30.897027
131,24.317208152143458,30.903015
132,24.10601043453056,30.915511
133,23.894812716917667,30.927523
134,23.68361499930477,30.955413
135,23.47241728169187,30.961528
136,23.366818422885423,31.023095
137,23.261219564078974,31.052587
138,23.262375159154498,31.064984
139,23.26353075423002,31.071772
140,23.264686349305542,31.077752
141,23.265841944381066,31.083903
142,23.266419741918824,31.090176
143,23.266997539456586,31.102279
144,23.26815313453211,31.114757
145,23.03896985946458,31.128488
146,22.80978658439705,31.152488
147,22.58060330932952,31.159378
148,22.351420034261984,31.179846
149,22.122236759194454,31.186593
150,21.893053484126924,31.193495
151,21.613727907285007,31.200432
152,21.33440233044309,31.20739
153,21.055076753601174,31.221188
154,20.775751176759258,31.226955
155,20.49642559991734,31.239965
156,20.217100023075425,31.249803
157,19.937774446233508,31.256681
158,19.65844886939159,31.263681
159,19.268688202386812,31.277316
160,18.87892753538203,31.284409
161,18.48916686837725,31.29828
162,18.09940620137247,31.329742
163,17.709645534367688,31.336525
164,17.31988486736291,31.342245
165,16.955679366699947,31.351599
166,16.591473866036985,31.363979
167,16.227268365374023,31.376455
168,15.86306286471106,31.389
169,15.498857364048098,31.394864
170,15.134651863385134,31.401062
171,14.770446362722172,31.41385
172,14.308552288014067,31.427495
173,13.846658213305961,31.434464
174,13.384764138597854,31.441174
175,12.922870063889748,31.493276
176,12.876812941011833,31.511754
177,12.830755818133918,31.517894
178,12.738641572378087,31.536484
179,12.646527326622257,31.563978
180,12.521263306151024,31.582833
181,12.395999285679789,31.589224
182,12.270735265208556,31.601436
183,12.145471244737323,31.614111
184,12.020207224266088,31.620696
185,11.894943203794854,31.648154
186,11.944063904503373,31.654456
187,11.952250687954793,31.660256
188,11.960437471406212,31.666584
189,11.968624254857634,31.686757
190,11.976811038309053,31.693779
191,11.984997821760473,31.707713
192,11.993184605211892,31.714166
193,12.163450575387609,31.748872
194,12.333716545563323,31.783191
195,12.50398251573904,31.789253
196,12.674248485914756,31.813921
197,12.844514456090472,31.832861
198,13.014780426266189,31.838962
199,13.185046396441903,31.845119
200,13.35531236661762,31.872543
201,13.525578336793336,31.878754
202,13.69584430696905,31.885082
203,13.866110277144767,31.891234
204,14.036376247320483,31.897382
205,14.2066422174962,31.928549
206,14.376908187671916,31.940669
207,14.54717415784763,31.946979
208,14.717440128023346,31.981081
209,14.887706098199063,32.001973
210,15.057972068374777,32.022743
211,15.228238038550494,32.057329
212,15.39850400872621,32.076531
213,15.568769978901926,32.082869
214,15.739035949077643,32.096856
215,15.909301919253357,32.103682
216,16.07956788942907,32.110438
217,16.24983385960479,32.131043
218,16.420099829780504,32.161214
219,16.59036579995622,32.170191
220,16.760631770131937,32.17676
221,16.930897740307653,32.190533
222,17.10116371048337,32.20386
223,17.271429680659082,32.217595
224,17.441695650834802,32.24977
225,17.611961621010515,32.273125
226,17.78222759118623,32.293836
227,17.952493561361948,32.300933
228,18.122759531537664,32.306886
229,18.29302550171338,32.319165
230,18.463291471889097,32.325313
231,18.633557442064813,32.331714
232,18.803823412240526,32.337874
233,18.974089382416246,32.344004
234,19.14435535259196,32.356591
235,19.314621322767675,32.368963
236,19.48488729294339,32.37492
237,19.655153263119107,32.381264
238,19.825419233294824,32.399848
239,19.995685203470536,32.406059
240,20.165951173646256,32.412085
241,20.33621714382197,32.418426
242,20.50648311399769,32.438893
243,20.6767490841734,32.445608
244,20.847015054349118,32.451594
245,21.017281024524834,32.458328
246,21.187546994700547,32.499431
247,21.357812964876267,32.513144
248,21.52807893505198,32.531606
249,21.6983449052277,32.550888
250,21.868610875403412,32.557678
251,22.03887684557913,32.585557
252,22.209142815754845,32.591454
253,22.37940878593056,32.603982
254,22.549674756106278,32.622908
255,22.71994072628199,32.635513
256,22.89020669645771,32.642466
257,23.060472666633423,32.649225
258,23.230738636809143,32.663549
259,23.401004606984856,32.675408
260,23.62138393416543,32.681596
261,23.841763261346003,32.688267
262,24.062142588526577,32.709042
263,24.81650120295993,32.728704
264,25.570859817393288,32.735522
265,26.32521843182664,32.749088
266,26.60810291223915,32.754832
267,26.89098739265166,32.804846
268,27.173871873064165,32.811613
269,27.456756353476674,32.823977
270,27.739640833889183,32.830082
271,28.02252531430169,32.836249
272,28.305409794714198,32.842533
273,28.588294275126707,32.867982
274,28.86389796821399,32.895129
275,29.139501661301278,32.92007
276,28.938954762631056,32.926529
277,28.73840786396083,32.938595
278,28.53786096529061,32.965486
279,28.337314066620383,32.97265
280,28.13676716795016,32.992133
281,28.182229216426435,32.999569
282,28.227691264902713,33.006825
283,28.27315331337899,33.013544
284,28.318615361855265,33.020308
285,28.341346386093402,33.041184
286,28.36407741033154,33.05495
287,28.409539458807817,33.085449
288,28.409198152840446,33.104494
289,28.40885684687307,33.154735
290,28.212064968991772,33.17439
291,28.015273091110476,33.180947
292,27.818481213229177,33.187221
293,27.621689335347877,33.206199
294,27.42489745746658,33.212275
295,27.228105579585282,33.218599
296,26.605838723560346,33.225066
297,25.98357186753541,33.232385
298,25.361305011510474,33.239233
299,24.739038155485538,33.260397
300,24.116771299460602,33.273995
301,23.494504443435666,33.290554
302,23.169914956374615,33.29756
303,22.845325469313565,33.304423
304,22.52073598225251,33.311079
305,22.19614649519146,33.317975
306,21.87155700813041,33.331857
307,21.54696752106936,33.33871
308,21.222378034008308,33.344698
309,20.897788546947254,33.351015
310,20.573199059886203,33.357106
311,20.248609572825153,33.369728
312,20.072297414666494,33.382136
313,19.895985256507835,33.397245
314,19.543360940190514,33.403219
315,19.190736623873196,33.415633
316,18.838112307555875,33.421831
317,18.485487991238557,33.428094
318,18.13286367492124,33.434005
319,17.780239358603918,33.458639
320,17.473050566242037,33.464893
321,17.16586177388016,33.485215
322,16.85867298151828,33.495357
323,16.5514841891564,33.501998
324,16.24429539679452,33.508728
325,15.93710660443264,33.514631
326,15.51990525758889,33.520788
327,15.10270391074514,33.539815
328,14.68550256390139,33.546119
329,14.268301217057637,33.558595
330,13.851099870213886,33.565231
331,13.433898523370136,33.571916
332,13.016697176526385,33.578761
333,12.599495829682635,33.585581
334,12.460428714068051,33.609173
335,12.321361598453468,33.616009
336,12.182294482838884,33.62292
337,12.072426090940768,33.630025
338,11.962557699042652,33.650381
339,11.852689307144535,33.675486
340,11.847042039188874,33.681325
341,11.841394771233212,33.687656
342,11.830100235321886,33.696785
343,11.81880569941056,33.722779
344,11.807511163499237,33.750181
345,11.775447597359369,33.75712
346,11.743384031219502,33.76398
347,11.711320465079634,33.784605
348,11.6952886820097,33.812913
349,11.679256898939766,33.825596
350,11.663225115869832,33.831535
351,11.647193332799898,33.837966
352,11.631161549729963,33.850361
353,11.61512976666003,33.862671
354,11.600982577585508,33.874791
355,11.586835388510988,33.887101
356,11.572688199436467,33.896629
357,11.558541010361946,33.908623
358,11.544393821287425,33.914943
359,11.530246632212904,33.921259
360,11.516099443138383,33.9336
361,11.501952254063863,33.939727
362,11.487805064989342,33.958479
363,11.63767101349708,33.964739
364,11.78753696200482,33.970668
365,11.937402910512558,33.977045
366,12.087268859020298,33.983064
367,12.237134807528037,33.98908
368,12.387000756035775,34.004126
369,12.536866704543515,34.010619
370,12.686732653051253,34.016697
371,12.836598601558993,34.022503
372,12.986464550066732,34.028797
373,13.136330498574472,34.035421
374,13.28619644708221,34.041328
375,13.43606239558995,34.059927
376,13.585928344097688,34.073638
377,13.735794292605426,34.092638
378,13.885660241113166,34.120408
379,14.035526189620905,34.126624
380,14.185392138128645,34.133106
381,14.335258086636383,34.139006
382,14.485124035144121,34.1454
383,14.634989983651861,34.157401
384,14.7848559321596,34.164276
385,14.93472188066734,34.171197
386,15.084587829175078,34.177947
387,15.234453777682816,34.183998
388,15.384319726190556,34.190239
389,15.534185674698296,34.196541
390,15.684051623206035,34.205604
391,15.833917571713773,34.211664
392,15.983783520221511,34.230632
393,16.133649468729253,34.236698
394,16.28351541723699,34.242961
395,16.43338136574473,34.249112
396,16.583247314252468,34.279943
397,16.733113262760206,34.286495
398,16.882979211267944,34.308491
399,17.032845159775686,34.322465
400,17.182711108283424,34.329318
401,17.332577056791163,34.33618
402,17.482443005298904,34.342925
403,17.632308953806643,34.350057
404,17.78217490231438,34.35696
405,17.93204085082212,34.363818
406,18.081906799329857,34.370768
407,18.231772747837596,34.398146
408,18.381638696345338,34.415123
409,18.531504644853076,34.421924
410,18.681370593360814,34.428849
411,18.831236541868552,34.441218
412,18.981102490376294,34.475592
413,19.130968438884032,34.482509
414,19.28083438739177,34.49674
415,19.43070033589951,34.524134
416,19.580566284407247,34.531024
417,19.730432232914985,34.538248
418,19.880298181422727,34.545018
419,20.030164129930466,34.55114
420,20.180030078438204,34.557636
421,20.329896026945946,34.57128
422,20.479761975453684,34.611133
423,20.629627923961422,34.617338
424,20.77949387246916,34.629854
425,20.93915237589931,34.636055
426,21.09881087932946,34.663746
427,21.25846938275961,34.670754
428,21.41812788618976,34.677655
429,21.577786389619913,34.684562
430,21.73744489305006,34.691822
431,21.89710339648021,34.697762
432,22.709169657154227,34.70384
433,23.521235917828243,34.718976
434,24.333302178502258,34.725287
435,24.326407355087927,34.737425
436,24.319512531673592,34.743492
437,24.31261770825926,34.749881
438,24.305722884844926,34.762299
439,24.298828061430594,34.780973
440,24.264353944358934,34.787173
441,24.252862572001714,34.82371
442,24.24137119964449,34.837243
443,24.22987982728727,34.844237
444,24.443401948943766,34.851475
445,24.656924070600265,34.858343
446,24.870446192256765,34.872031
447,25.08396831391326,34.885628
448,25.131693183518916,34.892494
449,25.17941805312457,34.905283
450,25.22714292273023,34.920632
451,25.274867792335886,34.927749
452,25.298730227138712,34.934586
453,25.322592661941542,34.948212
454,25.361161403037762,34.961265
455,25.399730144133986,34.979622
456,25.43829888523021,35.010507
457,25.47686762632643,35.025487
458,25.359740841533025,35.038154
459,25.242614056739615,35.04439
460,25.0083604871528,35.050459
461,24.774106917565984,35.05636
462,24.656980132772574,35.088964
463,24.539853347979168,35.095928
464,24.18033053279229,35.13731
465,23.820807717605412,35.175328
466,23.541381756293916,35.181924
467,23.261955794982423,35.195016
468,22.982529833670927,35.201071
469,22.70310387235943,35.206935
470,22.423677911047935,35.228574
471,22.144251949736443,35.235542
472,21.864825988424947,35.270055
473,22.317217726986733,35.277075
474,22.76960946554852,35.295344
475,23.222001204110306,35.313944
476,22.83066420916638,35.323189
477,22.439327214222452,35.34169
478,22.047990219278525,35.347847
479,21.656653224334597,35.354178
480,21.26531622939067,35.360098
481,20.873979234446743,35.366058
482,20.482642239502816,35.378473
483,20.09130524455889,35.390934
484,19.736375562230258,35.403165
485,19.381445879901626,35.409206
486,19.026516197572995,35.415411
487,18.671586515244364,35.431027
488,18.316656832915733,35.437437
489,17.9617271505871,35.443448
490,17.60679746825847,35.449857
491,17.25186778592984,35.463583
492,16.777008785477697,35.470425
493,16.30214978502556,35.476843
494,15.827290784573417,35.483662
495,15.352431784121277,35.490469
496,14.877572783669136,35.534915
497,14.402713783216996,35.548524
498,13.953890603444265,35.573214
499,13.7294790135579,35.579299
500,13.505067423671532,35.591971
501,13.0562442438988,35.605745
502,12.607421064126068,35.61947
503,12.24544143811068,35.628967
504,11.883461812095291,35.635898
505,11.521482186079902,35.666855
506,11.40082231074144,35.67922
507,11.280162435402977,35.685886
508,11.159502560064514,35.693037
509,11.20785914301833,35.698682
510,11.256215725972147,35.711051
511,11.304572308925964,35.729774
512,11.377107183356689,35.735671
513,11.449642057787415,35.74188
514,11.522176932218139,35.748048
515,11.594711806648863,35.754145
516,11.66724668107959,35.760729
517,11.739781555510314,35.766905
518,11.668202215568684,35.773262
519,11.596622875627052,35.779659
520,11.578728040641643,35.792415
521,11.560833205656236,35.79865
522,11.542938370670829,35.8174
523,11.52504353568542,35.844878
524,11.50714870070001,35.852034
525,11.489253865714604,35.864317
526,11.471359030729197,35.870772
527,11.453464195743788,35.876886
528,11.508866370105855,35.895901
529,11.564268544467922,35.90237
530,11.619670718829989,35.908857
531,11.675072893192056,35.915482
532,11.626343932334429,35.922198
533,11.577614971476802,35.945534
534,11.5745694114232,35.957569
535,11.571523851369598,35.969945
536,11.568478291315996,35.982307
537,11.565432731262394,35.995827
538,11.562387171208794,36.002918
539,11.559341611155192,36.016661
540,11.55629605110159,36.023522
541,11.553250491047988,36.0328
542,11.550204930994386,36.044918
543,11.547159370940784,36.056975
544,11.544113810887183,36.075158
545,11.541068250833582,36.093677
546,11.53802269077998,36.100447
547,11.534977130726379,36.107519
548,11.531931570672777,36.125615
549,11.528886010619175,36.142738
550,11.525840450565573,36.170383
551,11.522794890511971,36.182327
552,11.51974933045837,36.195197
553,11.516703770404767,36.202163
554,11.513658210351167,36.222988
555,11.510612650297565,36.229888
556,11.507567090243963,36.243087
557,11.504521530190361,36.261162
558,11.50147597013676,36.273838
559,11.498430410083158,36.27983
560,11.495384850029556,36.286353
561,11.492339289975956,36.313392
562,11.489293729922354,36.327068
563,11.486248169868752,36.336708
564,11.48320260981515,36.343562
565,11.480157049761548,36.357649
566,12.006190567704246,36.378366
567,12.532224085646945,36.405599
568,13.058257603589642,36.412419
569,13.58429112153234,36.419208
570,14.110324639475039,36.426146
571,14.636358157417735,36.457005
572,15.162391675360434,36.470823
573,15.688425193303132,36.496336
574,16.214458711245832,36.50326
575,16.74049222918853,36.510207
576,17.266525747131226,36.516883
577,17.792559265073926,36.540783
578,18.318592783016623,36.547604
579,18.84462630095932,36.554624
580,19.37065981890202,36.574329
581,19.896693336844717,36.580484
582,20.422726854787413,36.598842
583,20.948760372730113,36.61278
584,21.47479389067281,36.619389
585,22.000827408615507,36.626633
586,22.526860926558207,36.633491
587,22.545718558680843,36.643289
588,22.564576190803482,36.65016
589,22.56929059883414,36.663833
590,22.5740050068648,36.67085
591,22.57871941489546,36.677898
592,22.583433822926118,36.68461
593,21.81209185969938,36.70504
594,21.04074989647264,36.731103
595,20.2694079332459,36.737863
596,20.600637842846748,36.758702
597,20.93186775244759,36.792786
598,21.263097662048438,36.818693
599,21.59432757164928,36.855793
600,21.925557481250127,36.868094
601,22.778406126382023,36.880364
602,23.63125477151392,36.892868
603,23.450936535817746,36.929874
604,23.270618300121576,36.935965
605,23.210512221556186,36.963196
606,23.150406142990793,36.969762
607,23.090300064425403,36.976305
608,23.057504045824718,37.003762
609,23.04657203962449,37.009817
610,23.03564003342426,37.022336
611,23.024708027224033,37.041969
612,22.574936488839953,37.050767
613,22.125164950455872,37.056937
614,21.67539341207179,37.063227
615,21.225621873687707,37.093938
