,distance,time (s)
0,8.215281514142239,29.012329
1,8.215281514142239,29.043419
2,8.215281514142239,29.052815
3,8.215281514142239,29.077646
4,8.215281514142239,29.108281
5,8.259575404099836,29.126849
6,8.303869294057433,29.138979
7,8.348163184015029,29.238927
8,8.370310128993827,29.313939
9,8.392457073972626,29.339809
10,8.401315851964146,29.363941
11,8.410174629955664,29.411757
12,8.419033407947184,29.467186
13,8.427892185938703,29.488044
14,8.436750963930223,29.519161
15,8.54168239262061,29.544413
16,8.646613821310996,29.579203
17,8.751545250001382,29.637855
18,8.856476678691768,29.650014
19,8.961408107382155,29.733436
20,9.066339536072542,29.780233
21,9.171270964762929,29.876668
22,9.276202393453314,29.895025
23,9.3811338221437,29.977222
24,9.486065250834088,30.009604
25,9.590996679524475,30.119025
26,9.695928108214861,30.188262
27,9.800859536905246,30.201976
28,9.905790965595633,30.241922
29,10.01072239428602,30.266536
30,10.115653822976407,30.279279
31,10.220585251666792,30.382564
32,10.325516680357179,30.394828
33,10.430448109047566,30.441095
34,10.535379537737953,30.479682
35,10.640310966428338,30.513664
36,10.745242395118725,30.551959
37,10.850173823809111,30.559076
38,10.955105252499498,30.573232
39,11.060036681189885,30.613666
40,11.16496810988027,30.67121
41,11.269899538570657,30.773167
42,11.374830967261044,30.821584
43,8.739668056615207,30.890362
44,8.682510085561933,30.903015
45,8.62535211450866,30.915511
46,8.511036172402115,31.023095
47,8.396720230295568,31.114757
48,8.2555090409512,31.128488
49,8.114297851606832,31.159378
50,7.973086662262463,31.179846
51,7.831875472918095,31.200432
52,7.690664283573727,31.221188
53,7.549453094229358,31.29828
54,7.40824190488499,31.336525
55,7.267030715540622,31.363979
56,7.525107769833703,31.401062
57,7.783184824126784,31.493276
58,8.041261878419864,31.517894
59,8.299338932712946,31.536484
60,8.557415987006026,31.582833
61,8.815493041299106,31.620696
62,8.924415126320909,31.660256
63,9.033337211342714,31.693779
64,9.142259296364516,31.783191
65,9.251181381386319,31.832861
66,9.360103466408123,31.872543
67,9.469025551429926,31.885082
68,9.577947636451729,31.897382
69,9.686869721473533,31.940669
70,9.795791806495336,32.076531
71,9.904713891517138,32.096856
72,10.013635976538943,32.110438
73,10.122558061560746,32.161214
74,10.231480146582548,32.170191
75,10.340402231604353,32.190533
76,10.449324316626155,32.217595
77,10.558246401647958,32.273125
78,10.667168486669762,32.293836
79,10.776090571691565,32.306886
80,10.885012656713368,32.325313
81,10.993934741735172,32.337874
82,11.102856826756975,32.356591
83,11.21177891177878,32.37492
84,11.320700996800582,32.412085
85,11.429623081822385,32.445608
86,11.538545166844187,32.458328
87,11.647467251865992,32.513144
88,11.756389336887795,32.531606
89,11.865311421909599,32.557678
90,11.974233506931402,32.591454
91,12.083155591953204,32.642466
92,12.192077676975007,32.675408
93,12.300999761996811,32.688267
94,12.409921847018614,32.735522
95,12.103136269537979,32.811613
96,11.796350692057342,32.836249
97,11.489565114576706,32.895129
98,11.476619129270865,32.92007
99,11.463673143965027,32.938595
100,11.437781173353347,32.965486
101,11.411889202741667,32.999569
102,11.398943217435829,33.013544
103,11.385997232129988,33.041184
104,11.360105261518308,33.085449
105,11.334213290906629,33.180947
106,10.918410069178405,33.212275
107,10.502606847450183,33.232385
108,10.08680362572196,33.260397
109,9.671000403993737,33.273995
110,9.255197182265514,33.290554
111,8.83939396053729,33.311079
112,8.423590738809068,33.33871
113,8.007787517080844,33.351015
114,8.15968419987966,33.382136
115,8.311580882678477,33.403219
116,8.463477565477293,33.458639
117,8.615374248276108,33.485215
118,8.691322589675517,33.501998
119,8.767270931074925,33.514631
120,8.919167613873741,33.546119
121,9.071064296672558,33.571916
122,9.101443633232321,33.585581
123,9.131822969792085,33.616009
124,9.162202306351848,33.675486
125,9.19258164291161,33.687656
126,9.222960979471374,33.750181
127,9.296348532383462,33.831535
128,9.36973608529555,33.850361
129,9.443123638207636,33.862671
130,9.516511191119724,33.939727
131,9.589898744031812,33.958479
132,9.6632862969439,33.970668
133,9.736673849855988,33.983064
134,9.810061402768074,34.004126
135,9.883448955680162,34.022503
136,9.95683650859225,34.035421
137,10.030224061504338,34.092638
138,10.103611614416426,34.126624
139,10.176999167328512,34.139006
140,10.2503867202406,34.171197
141,10.323774273152688,34.183998
142,10.397161826064776,34.249112
143,10.470549378976862,34.279943
144,10.54393693188895,34.308491
145,10.617324484801038,34.322465
146,10.690712037713126,34.33618
147,10.764099590625214,34.350057
148,10.837487143537302,34.363818
149,10.910874696449389,34.421924
150,10.984262249361477,34.475592
151,11.057649802273565,34.49674
152,11.131037355185653,34.531024
153,11.204424908097739,34.557636
154,11.277812461009827,34.57128
155,11.351200013921915,34.611133
156,11.424587566834003,34.629854
157,11.382327572393311,34.670754
158,11.34006757795262,34.691822
159,11.29780758351193,34.743492
160,11.255547589071238,34.762299
161,11.086507611308475,34.787173
162,11.001987622427093,34.837243
163,10.91746763354571,34.858343
164,10.746860229813013,34.920632
165,10.576252826080317,34.934586
166,10.405645422347622,34.961265
167,10.235038018614924,35.025487
168,10.064430614882227,35.04439
169,9.893823211149531,35.195016
170,9.871163382544948,35.206935
171,9.848503553940365,35.235542
172,9.825843725335782,35.295344
173,9.803183896731198,35.34169
174,9.780524068126615,35.409206
175,9.416850459482141,35.437437
176,9.053176850837668,35.449857
177,8.689503242193192,35.463583
178,8.325829633548718,35.476843
179,7.962156024904244,35.483662
180,7.59848241625977,35.548524
181,7.416645611937533,35.579299
182,7.234808807615296,35.605745
183,8.05319401471961,35.635898
184,8.189591549236996,35.711051
185,8.325989083754381,35.74188
186,8.462386618271767,35.773262
187,8.598784152789152,35.792415
188,8.735181687306538,35.870772
189,8.871579221823923,35.922198
190,9.693530552667575,35.945534
191,10.515481883511228,35.982307
192,10.606809809160522,36.002918
193,10.698137734809817,36.016661
194,10.789465660459111,36.142738
195,10.880793586108407,36.170383
196,10.9721215117577,36.195197
197,11.063449437406996,36.229888
198,11.15477736305629,36.27983
199,11.246105288705586,36.313392
200,11.33743321435488,36.357649
201,11.428761140004173,36.470823
202,11.520089065653469,36.510207
203,11.611416991302763,36.540783
204,11.702744916952058,36.554624
205,11.794072842601352,36.580484
206,11.885400768250648,36.598842
207,11.976728693899942,36.619389
208,12.068056619549237,36.633491
209,12.159384545198531,36.67085
210,11.461842827664722,36.68461
211,10.76430111013091,36.70504
212,10.589915680747458,36.758702
213,10.415530251364006,36.792786
214,10.241144821980553,36.818693
215,10.0667593925971,36.969762
216,9.758036884929759,37.022336
217,9.449314377262414,37.050767
218,8.831869361927728,37.186404
219,8.647803788024389,37.232171
220,8.463738214121049,37.262855
221,8.27967264021771,37.283482
222,8.09560706631437,37.346866
223,8.036914804511175,37.411368
224,7.978222542707981,37.445667
225,7.9195302809047865,37.502586
226,7.89018415000319,37.52315
227,7.8608380191015925,37.537267
228,7.802145757298398,37.564014
229,7.743453495495204,37.582549
230,7.684761233692009,37.596226
231,7.733087489663323,37.644531
232,7.7814137456346355,37.661276
233,7.829740001605949,37.701911
234,7.878066257577263,37.720116
235,7.926392513548577,37.825104
236,7.97471876951989,37.837338
237,8.023045025491204,37.885395
238,8.244990658568417,37.973081
239,8.466936291645633,38.016288
240,8.688881924722846,38.042386
241,8.91082755780006,38.119622
242,9.132773190877273,38.158293
243,9.354718823954489,38.173367
244,9.576664457031702,38.265894
245,9.798610090108916,38.330584
246,10.020555723186131,38.370559
247,10.242501356263345,38.401414
248,10.464446989340559,38.440039
249,10.686392622417774,38.538193
250,10.908338255494987,38.641675
251,10.685493063220175,38.711826
252,10.462647870945364,38.74494
253,10.239802678670552,38.809819
254,10.01695748639574,38.843359
255,9.741340070592889,38.905635
256,9.465722654790039,38.943201
257,9.19010523898719,38.970705
258,8.91448782318434,39.017909
259,8.776679115282914,39.036443
260,8.63887040738149,39.04874
261,8.363252991578639,39.098036
262,8.682166726156092,39.186252
263,9.001080460733546,39.204766
264,9.319994195310999,39.235592
265,9.638907929888452,39.297423
266,9.957821664465905,39.348353
267,9.606367367142935,39.368915
268,9.254913069819965,39.391444
269,8.903458772496995,39.438775
270,8.552004475174027,39.4715
271,8.200550177851056,39.492699
272,7.849095880528086,39.53039
273,7.497641583205116,39.567571
274,7.146187285882146,39.608079
275,7.243543028408907,39.645309
276,7.275994942584494,39.678568
277,7.3084468567600815,39.760602
278,7.340898770935668,39.795982
279,7.354806734153777,39.827915
280,7.368714697371886,39.873944
281,7.382622660589995,39.960928
282,7.396530623808103,39.984993
283,7.410438587026212,40.024521
284,7.424346550244321,40.045042
285,7.43825451346243,40.106787
286,7.601477657445483,40.150275
287,7.7647008014285355,40.187273
288,7.927923945411589,40.26256
289,8.091147089394642,40.282848
290,8.254370233377696,40.334927
291,8.417593377360749,40.355364
292,8.5808165213438,40.403529
293,8.744039665326854,40.424051
294,8.907262809309907,40.470185
295,9.07048595329296,40.4981
296,9.233709097276014,40.51032
297,9.396932241259066,40.565935
298,9.560155385242119,40.595227
299,9.723378529225172,40.663627
300,10.182053681661328,40.693848
301,10.640728834097485,40.734929
302,11.099403986533641,40.848182
303,11.079955852600861,40.903014
304,11.06050771866808,40.939871
305,11.041059584735299,40.987579
306,11.021611450802519,41.00663
307,11.002163316869737,41.083183
308,10.992439249903347,41.105532
309,10.982715182936957,41.118094
310,10.744363724427796,41.175096
311,10.506012265918635,41.272346
312,10.267660807409474,41.30029
313,10.029309348900313,41.318939
314,9.790957890391152,41.365145
315,9.515182016341923,41.393067
316,9.239406142292694,41.454629
317,8.963630268243465,41.509595
318,8.687854394194236,41.52805
319,8.412078520145007,41.552639
320,8.136302646095778,41.602715
321,8.101755290922455,41.623305
322,8.067207935749133,41.722237
323,8.049934258162471,41.759712
324,8.03266058057581,41.787103
325,8.024023741782479,41.852982
326,8.015386902989148,41.865446
327,8.006750064195817,41.944848
328,7.998113225402487,41.963413
329,8.365388442997421,42.07062
330,8.732663660592355,42.095446
331,9.09993887818729,42.154241
332,9.467214095782223,42.206189
333,9.834489313377158,42.243266
334,10.201764530972092,42.286432
335,10.569039748567025,42.321619
336,10.93631496616196,42.366758
337,11.303590183756894,42.385107
338,11.67086540135183,42.423728
339,12.038140618946763,42.45129
340,12.405415836541696,42.510525
341,12.772691054136631,42.527145
342,13.139966271731565,42.544999
343,13.5072414893265,42.663557
344,13.874516706921433,42.709716
345,13.841648381472806,42.778827
346,13.825214218748492,42.811202
347,13.80878005602418,42.875971
348,13.441589951401914,42.900912
349,13.074399846779649,42.929056
350,12.707209742157383,42.972753
351,12.340019637535118,42.993072
352,11.972829532912852,43.011924
353,11.605639428290587,43.099427
354,11.294382070034073,43.139023
355,10.98312471177756,43.179129
356,10.671867353521046,43.20661
357,10.360609995264532,43.243545
358,10.049352637008019,43.264135
359,9.738095278751505,43.277837
360,9.426837920494991,43.291013
361,9.115580562238478,43.315526
362,8.804323203981964,43.368294
363,8.82038810791384,43.380598
364,8.836453011845716,43.411818
365,8.852517915777593,43.43228
366,8.868582819709468,43.493896
367,8.884647723641345,43.574127
368,8.90071262757322,43.592627
369,8.916777531505097,43.645143
370,9.574592841883629,43.663407
371,10.23240815226216,43.691019
372,10.301651869144111,43.799501
373,10.37089558602606,43.813833
374,10.440139302908012,43.835449
375,10.509383019789963,43.927672
376,10.578626736671913,44.007024
377,10.647870453553864,44.044602
378,10.717114170435815,44.09376
379,10.786357887317767,44.152348
380,10.855601604199716,44.226648
381,10.924845321081667,44.260621
382,10.994089037963619,44.278855
383,11.063332754845568,44.297484
384,11.13257647172752,44.315991
385,11.20182018860947,44.43768
386,11.27106390549142,44.571381
387,11.340307622373372,44.589559
388,11.409551339255323,44.608121
389,11.478795056137272,44.621946
390,11.548038773019224,44.642354
391,11.565324980891342,44.70259
392,11.582611188763462,44.737084
393,11.59989739663558,44.767662
394,11.617183604507698,44.908726
395,11.123705972091477,45.013472
396,10.630228339675256,45.032105
397,10.136750707259033,45.050604
398,9.643273074842812,45.153309
399,9.378680932411648,45.199787
400,9.114088789980485,45.212873
401,8.849496647549321,45.245239
402,8.584904505118157,45.272955
403,8.320312362686993,45.285332
404,8.05572022025583,45.323847
405,7.791128077824666,45.349846
406,7.874630535509452,45.370542
407,7.958132993194237,45.418604
408,7.99988422203663,45.450867
409,8.041635450879022,45.515386
410,8.083386679721414,45.527933
411,8.125137908563808,45.540159
412,8.208640366248593,45.568339
413,8.236474518810189,45.676135
414,8.264308671371783,45.689757
415,8.292142823933379,45.739801
416,8.40522149261453,45.808163
417,8.51830016129568,45.84238
418,8.631378829976832,45.950019
419,8.744457498657983,45.962133
420,8.857536167339132,45.988676
421,8.970614836020284,46.055464
422,9.083693504701435,46.10653
423,9.196772173382586,46.125195
424,9.309850842063737,46.187365
425,9.422929510744888,46.235343
426,9.53600817942604,46.276443
427,9.64908684810719,46.329391
428,9.76216551678834,46.366971
429,9.87524418546949,46.379054
430,9.988322854150642,46.395387
431,10.101401522831793,46.408973
432,10.214480191512944,46.430563
433,10.327558860194095,46.465785
434,10.440637528875246,46.497623
435,10.553716197556398,46.522099
436,10.666794866237549,46.54137
437,10.7798735349187,46.606212
438,10.89295220359985,46.716487
439,11.006030872281,46.754024
440,11.119109540962151,46.816305
441,11.626283486237003,46.840913
442,12.133457431511854,46.872601
443,11.870790979331703,46.885158
444,11.783235495271652,46.894369
445,11.695680011211602,46.933729
446,11.608124527151551,46.946202
447,11.3454580749714,46.964568
448,11.08279162279125,46.98312
449,10.8201251706111,46.99829
450,10.557458718430947,47.087212
451,10.294792266250797,47.116524
452,9.69389553500062,47.148173
453,9.09299880375044,47.21311
454,8.492102072500263,47.261208
455,7.891205341250084,47.347786
456,7.864118066112234,47.36025
457,7.837030790974383,47.379275
458,7.809943515836533,47.503359
459,7.782856240698682,47.515721
460,7.773827148986065,47.56528
461,7.764798057273449,47.624141
462,7.755768965560832,47.636419
463,8.466809543407033,47.648838
464,9.177850121253233,47.685619
465,9.533370410176333,47.741654
466,9.888890699099434,47.762507
467,10.244410988022533,47.775269
468,10.599931276945634,47.815257
469,10.63225130321137,47.889318
470,10.664571329477107,47.991949
471,10.696891355742844,48.074415
472,10.729211382008579,48.146341
473,10.761531408274315,48.16678
474,10.793851434540052,48.191444
475,10.826171460805789,48.214511
476,10.858491487071525,48.252597
477,10.890811513337262,48.29255
478,10.923131539602998,48.316113
479,10.955451565868735,48.35058
480,10.98777159213447,48.390118
481,11.020091618400206,48.424554
482,11.052411644665943,48.592367
483,11.08473167093168,48.622667
484,11.117051697197416,48.648648
485,11.149371723463153,48.661261
486,11.18169174972889,48.679438
487,11.214011775994624,48.778882
488,11.24633180226036,48.792685
489,11.278651828526097,48.806447
490,11.310971854791834,48.828744
491,11.411281965964502,48.891689
492,11.511592077137172,48.933586
493,11.255271832830529,48.968281
494,10.998951588523887,49.05767
495,10.742631344217244,49.142884
496,10.214882309449994,49.155345
497,9.687133274682743,49.186285
498,9.159384239915493,49.244973
499,8.63163520514824,49.263447
500,8.10388617038099,49.283958
501,7.57613713561374,49.31049
502,7.0483881008464895,49.331889
503,6.520639066079238,49.344427
504,6.982706665951934,49.369165
505,7.44477426582463,49.406445
506,7.906841865697325,49.464914
507,8.368909465570022,49.477426
508,8.830977065442717,49.490757
509,9.293044665315414,49.607519
510,10.494073247877484,49.635675
511,11.695101830439553,49.69787
512,11.741295237461172,49.786138
513,11.787488644482789,49.820377
514,11.833682051504407,49.899408
515,11.879875458526024,49.913201
516,11.926068865547643,49.924874
517,11.972262272569262,49.954434
518,12.018455679590879,50.02164
519,12.064649086612498,50.034472
520,12.110842493634117,50.051769
521,12.157035900655734,50.089221
522,12.203229307677352,50.146857
523,12.24942271469897,50.167474
524,12.295616121720588,50.194701
525,12.341809528742207,50.267059
526,12.388002935763824,50.280896
527,12.434196342785443,50.34285
528,12.48038974980706,50.397967
529,12.526583156828679,50.432021
530,12.572776563850297,50.452733
531,12.618969970871914,50.480249
532,12.665163377893533,50.500793
533,12.711356784915152,50.514352
534,12.757550191936769,50.608646
535,12.803743598958388,50.633716
536,12.849937005980005,50.686447
537,12.896130413001623,50.73345
538,13.037697098634167,50.76267
539,13.179263784266709,50.782289
540,13.320830469899253,50.869086
541,13.002411617122874,50.95289
542,12.683992764346495,50.973612
543,12.365573911570117,50.987183
544,12.047155058793738,51.020283
545,11.72873620601736,51.07344
546,11.41031735324098,51.107893
547,11.050732947467743,51.128196
548,10.691148541694504,51.152438
549,10.331564135921266,51.226487
550,9.971979730148028,51.256671
551,9.612395324374791,51.270599
552,9.252810918601552,51.349168
553,9.105040106684399,51.371925
554,8.957269294767247,51.396269
555,8.88338388880867,51.433072
556,8.809498482850094,51.467099
557,8.66172767093294,51.487482
558,8.513956859015789,51.520419
559,8.366186047098635,51.539859
560,8.218415235181483,51.563434
561,8.144529829222908,51.577329
562,8.07064442326433,51.610169
563,8.13243858658973,51.669646
564,8.194232749915129,51.682856
565,8.256026913240529,51.774889
566,8.276624967682329,51.787503
567,8.297223022124129,51.812373
568,8.317821076565929,51.839196
569,8.33841913100773,51.869845
570,8.35901718544953,51.888587
571,8.37961523989133,51.913668
572,8.40021329433313,51.925911
573,8.42081134877493,51.94469
574,8.44140940321673,51.957295
575,8.47478206854748,51.991186
576,8.50815473387823,52.034038
577,8.54152739920898,52.087713
578,8.574900064539731,52.101937
579,8.608272729870482,52.143078
580,8.641645395201232,52.156438
581,8.675018060531983,52.18345
582,8.708390725862731,52.214305
583,8.741763391193482,52.238814
584,8.775136056524232,52.257644
585,8.808508721854983,52.271489
586,8.841881387185733,52.305568
587,8.875254052516484,52.3332
588,8.908626717847234,52.353758
589,8.941999383177984,52.421223
590,8.975372048508735,52.481633
591,9.08592275262427,52.522068
592,9.196473456739808,52.534151
593,9.307024160855343,52.571454
594,9.41757486497088,52.585161
595,9.528125569086416,52.61231
596,9.638676273201952,52.638059
597,9.74922697731749,52.677727
598,9.859777681433025,52.718716
599,10.034774003773176,52.73897
600,10.209770326113327,52.752687
601,10.384766648453478,52.780044
602,10.559762970793631,52.814594
603,10.734759293133783,52.863437
604,10.909755615473934,52.900931
605,10.579670899884421,52.940668
606,10.249586184294907,52.994724
607,9.919501468705395,53.006802
608,9.58941675311588,53.0194
609,9.259332037526368,53.032827
610,8.929247321936854,53.083197
611,8.599162606347342,53.101973
612,8.568186158862764,53.120493
613,8.537209711378184,53.178031
614,8.506233263893606,53.196349
615,8.475256816409027,53.257495
616,8.444280368924447,53.340512
617,8.41330392143987,53.431718
618,8.483399967003933,53.466204
619,8.553496012567997,53.548097
620,8.623592058132061,53.603044
621,10.593676811767118,53.621371
622,10.655241960318213,53.633777
623,10.71680710886931,53.652394
